0,1,2,3,4,5,6,7,label
95.25,190.25,964.5,104.25,-52.25,-290.25,-889.0,1468.75,0
-147.75,144.5,293.5,49.25,-26.75,-129.0,-755.5,1592.5,0
-129.75,68.75,-649.0,-6.75,-158.75,484.0,-817.0,1667.25,0
-182.0,54.75,-833.0,-143.5,-212.0,618.25,-1007.25,1709.75,0
-450.25,84.25,-882.5,-276.0,-226.75,335.75,-1168.25,1717.25,0
-750.25,83.25,-1007.25,-247.5,-209.0,60.0,-673.5,1738.5,0
-661.0,63.75,-1151.25,-153.5,613.5,-635.5,-379.5,1729.75,0
-272.25,42.0,-1247.75,-151.75,1470.0,-787.0,-339.75,1728.5,0
63.5,17.0,-517.0,-150.0,1702.25,-499.25,143.5,1731.75,0
269.25,-58.0,298.5,-106.75,1620.75,-378.0,704.5,1707.25,0
333.75,-110.25,876.25,5.75,1519.25,-423.25,507.75,1675.0,0
232.0,-125.75,753.5,-14.75,1325.0,-225.5,118.75,1635.5,0
71.0,-130.75,139.75,-130.5,1159.5,-5.5,391.5,1580.75,0
87.0,-115.75,-461.0,-157.75,1418.75,174.75,755.25,1512.0,0
47.25,-92.0,-996.5,-171.5,1172.25,255.25,300.75,1466.0,0
25.5,-50.75,-556.5,-233.75,676.75,355.0,-374.0,1311.25,0
-24.5,5.75,240.25,-330.25,480.0,396.25,-484.75,1061.75,0
86.75,36.5,1135.5,-124.0,239.75,297.5,-121.25,877.75,0
162.5,17.0,1293.0,114.75,158.25,415.5,95.25,717.0,0
140.75,-19.5,756.75,60.25,782.75,595.5,-231.75,435.5,0
320.0,-27.0,708.25,79.0,1477.5,609.5,-561.5,88.75,0
345.0,-31.0,514.0,228.75,1684.0,575.5,-745.5,-125.5,0
294.25,-53.0,447.5,310.25,2039.25,677.25,-763.5,-156.0,0
-51.75,-48.25,-90.0,230.25,2104.5,760.5,-683.0,-296.25,0
-500.25,-25.0,-737.75,190.0,2073.25,881.25,-896.25,-499.5,0
-554.25,1.5,-1026.5,172.0,1714.5,1018.5,-1040.25,-585.0,0
-312.25,33.5,-1114.75,-37.25,710.5,1121.75,-1080.0,-806.75,0
153.0,46.75,-1041.5,-179.75,264.0,1167.25,-1097.25,-1004.25,0
792.5,67.5,-698.0,-162.25,240.0,1143.0,-1075.5,-1153.0,0
983.75,47.25,-161.75,-129.5,172.5,1121.25,-1064.25,-1345.5,0
719.0,52.75,-53.75,-211.0,140.25,1160.75,-995.25,-1518.75,0
538.5,114.75,-139.5,-453.5,-998.25,1294.5,-878.25,-1640.5,0
135.5,53.75,330.0,-408.25,-1645.0,1426.25,-819.75,-1534.5,0
-118.75,11.5,959.75,-102.5,-2028.25,1519.0,-751.0,-1258.5,0
-296.25,20.75,777.75,-47.75,-2232.5,1510.25,-719.0,-917.25,0
-359.5,59.25,307.5,-162.75,-2534.0,1334.25,-746.0,-786.25,0
-162.25,132.5,347.25,-369.25,-2573.25,1044.25,-836.25,-685.75,0
-50.0,135.0,176.75,-642.75,-2050.25,888.25,-892.5,-480.75,0
161.25,130.5,-265.5,-904.75,-1097.25,828.25,-843.25,-393.5,0
305.75,94.5,-302.5,-613.25,-621.25,583.0,-811.0,-457.0,0
273.75,18.25,-283.25,-98.75,-448.5,314.25,-646.75,-457.5,0
46.75,-33.5,14.5,73.75,-66.75,74.5,-370.5,-345.0,0
-305.25,-45.25,398.0,127.75,-325.75,-89.25,-429.0,-322.0,0
-475.25,-54.75,581.5,169.25,651.0,-222.0,-548.75,-668.75,0
-434.75,-21.25,191.0,229.5,1419.5,-284.0,-542.5,-1097.25,0
-164.5,26.5,-1278.5,-65.25,2100.5,-199.5,-515.5,-1255.25,0
205.0,-17.5,-1407.5,-321.5,2162.25,-146.5,-495.0,-1043.0,0
359.5,-69.5,-398.75,-215.75,2150.5,-110.0,-453.25,-373.0,0
-48.75,-115.5,204.25,-382.75,2135.0,-69.75,-324.25,121.75,0
-386.5,-136.0,470.0,-557.25,2046.25,82.5,-309.75,212.75,0
-357.5,-147.5,867.5,-434.5,1947.0,287.25,-359.25,109.25,0
-408.5,-170.75,1383.75,-407.75,1861.0,483.25,-198.75,-323.25,0
-339.75,-151.5,1537.5,-450.0,1807.75,539.5,-42.5,-643.25,0
-232.0,-152.75,1109.75,-442.25,1794.75,548.75,35.75,-691.25,0
-201.0,-126.0,-52.5,-121.5,-244.25,605.25,132.5,-795.75,0
-218.25,-126.75,-1464.75,152.75,-252.75,686.0,257.5,-956.25,0
-295.75,-140.0,-2001.25,49.75,-137.0,728.0,512.0,-1008.5,0
-350.5,-128.75,-1834.0,121.0,-7.75,757.5,916.0,-1182.5,0
-192.5,-118.5,-884.0,247.5,99.75,792.5,1085.75,-1268.5,0
245.25,-61.25,-733.25,149.25,62.75,789.25,979.5,-769.25,0
474.25,-32.75,-1648.25,88.0,-127.75,666.5,947.0,-201.75,0
401.75,-65.0,-1461.0,357.5,-181.5,167.0,908.25,173.0,0
408.75,-87.0,-1307.0,458.75,-195.0,198.25,933.0,387.75,0
257.75,-79.75,-1221.25,612.0,15.75,491.75,910.5,365.0,0
170.5,-124.5,-1249.75,820.0,161.25,329.0,892.0,352.75,0
207.25,-118.25,-889.75,729.0,-46.0,154.25,910.75,217.5,0
249.75,-100.0,44.25,792.75,14.0,-42.25,881.5,192.5,0
164.5,-99.0,388.75,742.75,-49.25,-305.0,881.0,321.25,0
83.5,-63.0,665.5,209.25,168.25,-442.5,881.75,384.0,0
122.0,-60.75,635.0,-31.5,501.25,-641.0,895.5,408.75,0
10.5,-27.0,981.5,322.0,863.5,-827.0,903.25,332.75,0
-122.5,-28.25,1350.0,392.0,1255.25,-982.0,924.25,151.5,0
-381.25,-46.5,1366.25,335.5,615.0,-1009.75,936.0,-143.25,0
-433.0,-73.5,1056.25,257.75,-254.75,-1032.5,964.5,-367.75,0
-536.5,-125.75,979.0,155.5,-797.5,-1083.5,349.0,-376.5,0
-525.5,-128.5,1024.25,309.25,-930.75,-1135.25,-1013.0,-192.5,0
-286.5,-110.5,259.0,353.75,-1304.75,-1053.75,-1050.0,131.75,0
-272.0,-39.25,-762.75,485.25,-1126.75,-874.75,-1090.25,359.25,0
-375.5,26.75,-677.0,487.5,-553.0,-762.75,-1101.75,468.5,0
-476.75,24.5,-481.0,334.0,-220.25,-824.25,-1101.0,447.75,0
-430.5,4.5,-205.75,361.5,-301.0,-920.5,-1091.75,254.25,0
-716.5,-17.0,-112.0,506.75,-426.75,-839.75,-1107.5,55.0,0
-1176.5,-5.5,13.0,762.5,-467.0,-816.25,-1132.0,-194.0,0
-1003.75,38.25,476.25,878.0,-446.0,-799.25,-1144.75,-445.5,0
-722.25,52.0,1462.0,907.75,-436.75,-639.0,-1135.25,-685.25,0
-547.75,66.75,1918.75,775.0,-426.0,-440.0,-1089.25,-842.25,0
-292.75,13.0,1894.5,689.0,-444.0,-271.25,-1028.5,-834.25,0
-156.75,-17.0,1231.75,627.5,-439.0,-282.25,-258.5,-719.0,0
174.0,34.0,-512.25,540.25,-440.0,-423.5,579.5,-668.0,0
445.0,108.75,-786.5,484.75,-445.0,-543.25,655.5,-732.25,0
582.5,219.25,-310.0,436.5,-401.75,-555.0,515.0,-850.75,0
478.75,204.25,224.0,380.0,-462.5,-644.0,587.75,-1061.0,0
246.0,107.25,1107.25,228.25,-594.25,-711.5,392.0,-1028.5,0
94.5,88.0,1397.5,164.25,-229.0,-515.5,404.0,-864.5,0
-130.75,56.0,1434.5,81.5,-201.75,-312.0,659.5,-380.0,0
-324.5,52.25,1688.25,28.75,85.5,-168.25,961.0,221.25,0
-514.75,60.0,-77.5,5.5,473.75,-228.0,944.25,676.25,0
-273.25,40.25,-55.25,-69.5,12.0,-662.75,928.0,1197.0,0
17.75,65.75,-29.0,-128.75,-5.75,-941.0,932.0,1305.25,0
147.0,55.0,-113.0,-199.25,27.75,-782.75,936.25,1453.25,0
601.25,59.25,-1284.5,-279.0,89.25,-347.25,943.5,1706.0,0
795.5,71.5,-2062.75,-312.0,184.25,13.25,945.25,1832.0,0
607.25,88.5,-2040.75,-280.0,431.5,160.25,938.75,1765.0,0
580.5,94.25,-2057.25,-254.5,1461.25,394.5,920.5,1500.25,0
359.75,77.75,-2108.5,-302.0,1846.0,526.75,914.25,1044.75,0
5.0,42.5,-1733.25,-400.25,2047.75,0.25,895.5,158.0,0
61.5,15.75,729.0,-383.0,2325.5,-816.5,888.75,-510.25,0
309.5,75.25,1503.0,-306.75,2290.5,-1171.25,902.75,-734.5,0
180.75,59.25,866.0,-380.25,2371.5,-1014.25,890.25,-770.0,0
127.75,47.5,-576.75,-495.75,2414.75,-637.75,942.25,-991.25,0
237.5,92.0,-1161.25,-504.75,2252.0,-357.0,994.0,-1379.0,0
209.25,106.5,-520.75,-390.25,1950.25,-343.75,936.5,-1379.5,0
307.0,102.0,-61.25,-390.75,2019.5,-352.75,926.0,-1498.25,0
292.0,84.0,-53.25,-446.25,1913.5,-150.0,994.5,-1532.5,0
359.5,105.25,-4.75,-366.5,1868.5,-49.25,1015.75,-1557.5,0
381.5,78.25,-148.5,-447.75,2243.0,17.25,1037.0,-1584.25,0
164.0,51.25,-141.25,-546.25,2250.5,149.75,1006.5,-1694.25,0
2.25,84.25,1374.25,-568.25,2200.25,140.75,985.0,-1808.25,0
-135.0,81.25,1234.25,-542.75,2040.75,178.5,981.75,-1857.5,0
-241.75,81.25,1002.75,-629.0,1917.5,361.5,574.5,-1844.5,0
-200.25,94.25,995.75,-779.75,2101.75,356.0,538.75,-1879.25,0
-2.25,115.5,1338.0,-764.75,2227.5,372.0,594.5,-1802.5,0
227.75,95.0,2079.5,-621.75,1926.75,493.75,335.0,-1654.5,0
587.0,72.25,-1135.5,-494.75,1521.5,515.25,-210.75,-1558.75,0
527.75,100.75,-952.5,-532.5,1114.0,521.0,-432.75,-1510.5,0
176.25,67.0,-930.25,-525.5,334.0,474.0,-708.0,-1444.5,0
14.75,41.5,-901.0,-447.5,-691.75,396.75,-800.5,-1384.5,0
-192.0,37.75,-897.5,-403.75,-640.75,166.5,-576.5,-1364.25,0
-323.75,23.0,914.75,-346.75,266.0,-160.75,-875.25,-1272.5,0
-229.25,22.25,1284.0,-246.25,168.25,-364.0,-911.75,-1194.0,0
-277.5,-76.0,360.75,-66.75,89.25,-311.5,-892.5,-1015.25,0
-579.25,-135.5,-287.75,105.25,-256.75,-220.75,-897.0,-488.0,0
-475.25,-66.5,-1121.0,222.5,-751.75,-196.5,-920.25,-148.75,0
-197.25,13.25,-1962.0,290.75,-1430.75,-10.25,-923.5,384.0,0
65.25,86.75,-1189.5,267.5,-1526.0,133.5,-905.25,1177.25,0
92.75,78.75,-1265.0,196.0,-1651.0,208.5,-881.0,1525.75,0
-114.0,81.75,-543.0,135.25,-1656.25,299.25,-845.25,1742.75,0
-162.75,75.0,-414.0,52.75,-1560.25,534.0,-783.25,1688.25,0
-405.0,49.25,426.0,14.5,-1536.75,745.5,-749.25,1640.5,0
-588.25,81.0,100.75,21.0,-1368.0,556.75,-760.5,1509.75,0
-396.75,48.25,-414.25,7.5,-1297.75,532.5,-801.75,1221.25,0
-43.75,45.75,-5.75,81.5,-1275.0,724.5,-884.25,1069.5,0
174.25,4.0,1787.75,222.25,-1336.0,399.75,-953.25,1130.5,0
-324.25,-11.75,2052.75,103.75,-1296.25,-137.25,-1020.75,1104.25,0
-772.25,-4.25,-499.75,-14.75,-1185.75,-306.75,-1117.5,1082.75,0
-383.75,-33.0,-1019.25,100.75,-1352.25,-284.25,-1161.0,1046.25,0
-200.25,-32.75,-78.0,194.5,-1475.75,-299.5,-1088.5,954.0,0
-37.5,-113.25,1001.5,246.75,-1621.25,-152.75,-1071.5,845.25,0
832.25,-149.5,905.0,322.25,-1558.25,34.75,-991.0,698.25,0
1846.75,-165.25,1682.75,354.25,-1361.5,2.5,-869.0,639.25,0
1719.0,-175.5,2424.5,332.25,-1245.75,122.75,-957.5,440.75,0
1574.5,-232.0,2738.0,316.0,-1252.75,335.0,-1078.0,356.5,0
1175.5,-223.75,2654.75,141.25,-1263.75,408.5,-1083.75,148.5,0
313.25,-140.0,1586.5,-31.25,-1254.5,311.25,-925.25,144.5,0
-495.0,-83.25,716.0,-103.25,-1287.75,159.0,-846.0,434.75,0
-688.0,-7.5,-657.25,-183.0,-1287.0,152.5,-816.0,220.25,0
-809.0,-14.25,-987.5,-293.0,-1496.25,161.5,-783.0,20.75,0
-728.75,-18.0,-1017.25,-361.0,-1253.75,279.25,-858.75,-263.0,0
-250.75,-10.5,-2852.75,-314.0,-497.25,394.5,-571.5,-173.75,0
-109.25,14.25,-2523.75,-207.5,-416.75,370.75,-898.75,-109.5,0
19.75,12.75,-1575.0,-116.75,-552.5,400.5,-1383.25,-388.5,0
45.75,-8.5,-989.75,-78.5,-716.75,398.75,-1415.5,-680.75,0
215.75,-1.5,-583.25,-43.75,-836.75,572.5,-518.5,-831.5,0
519.25,26.75,-772.25,-40.0,-662.75,603.0,531.5,-834.0,0
435.25,58.5,-941.5,-33.75,-668.0,212.75,881.0,-975.25,0
372.25,52.75,-1233.5,-58.5,-623.75,-56.5,993.75,-1154.25,0
601.75,65.5,616.25,-30.0,-140.25,-291.75,1133.75,-1203.0,0
693.25,107.25,1692.75,62.0,-104.5,-698.5,1325.25,-990.75,0
431.75,145.75,1417.75,159.0,-240.0,-750.75,1409.25,-1018.75,0
269.25,147.75,501.5,55.25,-233.75,-839.25,1401.5,-1142.0,0
-91.25,231.25,577.0,-224.5,-163.5,-604.5,1366.0,-1145.25,0
-435.75,287.25,758.0,-331.0,171.0,109.25,1273.25,-1347.0,0
-961.5,232.25,288.75,-466.5,211.5,631.25,1095.75,-1572.75,0
-1192.0,270.75,-1741.25,-588.5,142.0,922.75,966.0,-1711.75,0
-1361.75,444.5,-1234.25,-618.25,401.75,789.0,913.75,-1804.25,0
-1447.25,528.25,1247.75,-546.0,895.0,602.5,939.0,-1902.75,0
-761.25,573.75,1515.25,-440.75,1165.5,228.0,1045.75,-1807.5,0
86.0,519.25,829.75,-399.0,1559.5,-312.0,1023.0,-1398.25,0
914.75,408.75,605.75,-286.75,1427.75,-685.5,991.25,-1074.75,0
1156.75,412.0,-1275.0,-262.75,814.0,-621.75,943.0,-1052.0,0
882.0,211.75,-2252.0,-250.75,-42.25,-123.0,857.0,-824.75,0
-333.25,278.0,-2317.75,-316.5,-1054.75,-157.75,1053.25,-400.5,0
-1029.25,248.5,-2658.5,-226.0,-745.25,140.25,1125.5,-164.0,0
-1308.5,138.0,-707.0,-163.5,-563.75,386.5,1034.0,-69.75,0
-739.0,183.5,-96.25,-293.5,-169.5,174.25,918.0,46.75,0
-474.25,10.5,257.5,-276.0,842.5,565.0,722.5,401.0,0
-286.0,-65.0,-686.0,-241.5,264.25,463.5,353.75,555.25,0
-113.0,-67.25,-372.5,3.25,-79.5,342.5,-278.25,382.75,0
-319.25,-129.75,939.0,252.25,-396.75,361.25,-387.25,241.75,0
-535.0,-162.5,415.5,177.0,-371.75,431.25,-458.0,235.75,0
-241.25,-307.0,-229.5,14.75,-158.0,484.25,-826.5,351.5,0
-102.25,-322.75,-263.75,-171.0,-214.75,606.25,-1491.0,607.25,0
-295.75,-381.0,-982.5,-163.5,-177.25,695.25,-1649.25,644.75,0
-594.5,-432.25,36.0,-106.0,-291.75,748.0,-1556.5,720.5,0
-10.5,-578.75,-90.25,-96.0,-214.75,950.25,-1517.5,1373.75,0
740.25,-991.5,499.75,330.75,-243.0,1192.5,-1590.0,2201.25,0
320.0,-1035.25,1787.75,1085.75,-246.75,1161.75,-1653.5,2144.0,0
443.5,-893.5,2127.0,1348.5,-363.5,891.0,-1471.5,1841.75,0
604.0,-853.75,2104.0,1305.25,-568.25,723.25,-1413.75,2133.75,0
572.0,-756.25,2148.75,1163.5,-634.0,278.5,-1526.0,1962.25,0
132.25,-667.0,2303.0,811.75,-820.75,-735.25,-1161.25,1892.0,0
-259.0,-622.0,1735.25,594.5,-1134.5,-888.0,-321.75,1627.25,0
-376.25,-427.5,487.0,691.25,-1350.0,-1022.5,151.0,1464.25,0
-470.25,-420.75,360.25,789.25,-1400.0,-1125.75,430.5,1490.25,0
-229.0,-301.75,662.75,609.0,-1615.75,-383.25,567.75,1437.25,0
-220.0,-273.0,904.5,339.25,-1756.75,621.75,633.75,1459.5,0
-241.25,-212.5,249.0,253.0,-1980.75,1256.75,546.25,1189.75,0
-196.75,-205.5,203.5,450.0,-2011.5,1292.0,131.25,1039.0,0
-413.5,-177.25,-65.25,1023.25,-1778.5,1227.0,-198.0,806.0,0
-336.0,-74.0,-198.0,1200.5,-1519.0,650.25,-386.25,693.25,0
-240.25,-15.0,-42.25,1194.75,-1304.25,-140.5,-571.75,487.25,0
-128.5,83.0,276.5,1023.75,-1063.0,-510.0,-731.75,428.25,0
-22.0,77.5,-1020.0,545.0,-371.0,-389.5,-909.25,409.25,0
26.0,133.75,-1471.5,20.5,-158.5,-184.0,-986.25,472.5,0
16.0,198.0,-2348.25,-117.5,-143.25,-116.5,-823.25,513.5,0
-88.75,250.0,-2518.5,-201.0,-90.25,-296.75,-613.25,220.5,0
89.25,258.0,-2401.5,-435.5,55.0,-730.5,-501.75,263.0,0
96.5,203.0,-2327.0,-451.25,308.0,-1274.75,-382.25,74.0,0
72.25,171.5,-1705.5,-505.0,640.5,-1307.0,-221.5,-113.25,0
139.5,221.0,-1163.75,-998.25,846.0,-1272.0,-87.25,-30.5,0
130.0,241.0,-855.5,-1342.75,966.25,-474.75,182.0,-86.0,0
368.75,239.0,-483.75,-1094.25,1066.0,-236.25,75.25,-76.75,0
825.75,224.25,-169.75,-832.5,1169.5,-84.25,-757.75,-194.5,0
1204.5,161.5,113.25,-536.0,1300.75,76.75,-1509.25,-217.5,0
1152.25,117.0,1284.5,-560.5,1326.5,135.5,-1539.75,-186.75,0
1080.25,68.25,1767.0,-501.5,1391.25,-100.0,-1600.75,-83.5,0
625.0,73.25,1319.75,124.5,1483.0,-277.0,-1094.0,20.25,0
-557.75,57.0,251.0,785.0,1584.0,-407.5,-231.25,-186.5,0
-1212.5,-29.0,-305.75,1101.25,1558.75,-424.25,204.0,-306.0,0
-1196.5,-52.0,-144.75,1048.0,1542.25,-205.0,267.5,-334.75,0
-1243.0,16.0,215.75,886.5,1654.75,76.25,21.0,-382.5,0
-1154.25,9.5,400.75,801.25,1638.5,120.75,-265.25,-252.75,0
-1183.25,82.25,134.5,440.75,1591.75,-35.75,-248.25,-217.75,0
-903.5,218.0,305.5,-696.0,1613.5,98.75,-451.25,-258.0,0
-347.75,200.25,1065.25,-1115.0,1536.25,233.25,-659.5,-131.5,0
-153.25,112.0,1811.0,-1102.0,1295.0,169.25,-937.5,23.75,0
24.75,42.25,2252.75,-1139.5,1193.5,222.5,-1207.5,-7.5,0
116.25,65.0,2432.25,-1134.5,1064.75,304.75,-1335.0,-183.0,0
145.5,57.0,2388.5,-1111.25,263.25,245.25,-1136.0,-234.5,0
587.25,36.25,2280.0,-867.75,-550.25,232.0,-908.25,-278.0,0
1309.25,29.5,1227.75,-1095.25,-981.25,286.5,-804.0,-350.25,0
1049.0,28.5,216.0,-919.5,-922.0,369.0,-753.75,-485.0,0
601.75,27.25,-639.0,592.5,-976.75,444.75,-909.25,-518.5,0
510.25,53.5,-1079.0,922.25,-1077.75,461.5,-989.5,-524.5,0
940.5,75.0,-1519.75,818.25,-1125.75,429.0,-817.5,-453.5,0
1320.0,32.5,-1757.5,900.0,-1075.0,412.5,-277.5,-156.5,0
1597.75,43.0,-1409.75,1158.25,-1066.75,394.25,274.0,36.0,0
1865.25,71.75,-1243.25,873.5,-1141.5,366.0,568.25,441.5,0
1107.25,81.0,-132.75,-578.75,-1117.0,417.5,768.0,765.5,0
632.0,102.25,106.25,-1089.5,-1209.25,407.5,960.25,925.5,0
605.5,105.0,343.0,-1218.75,-1275.5,400.0,884.5,1171.0,0
-251.25,101.5,579.75,-1322.5,-1236.25,341.75,455.75,1166.25,0
-1090.25,93.75,-882.0,-1309.75,-1258.0,342.5,533.25,1049.0,0
-1940.5,102.75,-1134.0,-1336.5,-1220.25,432.75,583.75,969.5,0
-2115.0,133.25,-1127.75,-1139.0,-1130.5,437.0,627.75,993.75,0
-2077.25,150.0,-1164.75,60.25,-970.0,289.0,551.75,1032.25,0
-2029.75,107.5,-1185.5,984.75,-917.0,-40.5,385.75,1037.25,0
-1338.5,40.75,-1048.25,1156.25,-896.75,-269.5,975.25,869.5,0
-1112.5,17.25,322.0,1178.25,-770.25,-63.25,1149.75,470.25,0
-774.0,32.75,859.0,994.5,-800.0,59.5,1076.0,231.25,0
2.25,100.5,267.75,612.0,-856.25,-124.25,1110.25,11.0,0
1440.5,169.5,-209.25,137.5,-764.5,-65.75,1093.75,-162.75,0
1531.25,138.0,-1347.25,-43.0,-653.75,127.5,1185.5,-65.5,0
1535.25,76.75,-1598.0,-181.0,-644.75,225.25,1054.5,-15.5,0
1763.75,59.75,-1628.25,-764.5,-672.5,107.25,747.5,19.5,0
1742.5,109.5,-1394.5,-1190.25,-622.25,-223.75,603.5,39.75,0
1012.25,173.0,-814.75,-948.5,-535.75,-617.5,846.0,-23.5,0
1275.5,131.75,-455.25,-128.75,-566.0,-871.5,1088.5,-164.75,0
1084.0,97.5,-625.5,13.5,-670.0,-966.25,1431.5,-219.0,0
1273.75,106.5,-353.75,803.0,253.5,-1073.75,2062.75,-183.25,0
666.25,118.75,562.5,1795.0,1472.75,-60.0,2134.0,-211.25,0
65.0,150.25,1611.0,2048.5,1851.0,878.0,2038.75,-139.75,0
-613.25,85.5,1798.75,2028.75,2077.75,1300.5,1517.0,-59.0,0
-915.5,-27.75,1863.0,1895.5,2130.0,1329.75,1090.5,-27.75,0
-794.25,-24.0,1763.0,1845.0,2109.0,1243.75,773.75,-31.0,0
-594.0,64.75,1694.5,1673.75,2070.25,1190.0,800.5,-23.5,0
-458.0,83.5,1380.25,1099.5,2050.0,1225.5,566.75,-134.25,0
-536.25,134.5,-139.5,515.0,2073.0,1007.75,871.0,-233.25,0
-608.5,202.5,-833.25,-171.75,2076.75,672.25,1349.5,-233.25,0
-933.25,200.0,-455.25,-356.25,1701.25,321.0,1484.0,-354.75,0
-993.75,108.5,109.75,-394.75,1202.25,46.75,1479.0,-479.25,0
-1118.0,-16.25,607.5,-345.75,719.75,-263.75,1518.75,-591.25,0
-1231.25,11.25,1006.75,-515.0,142.0,-341.75,1526.75,-681.75,0
-1138.5,61.5,932.75,-612.25,140.25,-164.5,1171.0,-895.25,0
-1048.25,4.75,964.25,-491.5,66.5,116.0,1057.25,-1079.25,0
-674.0,-129.5,1051.0,-389.25,-26.25,331.25,942.5,-1160.5,0
-464.0,-197.25,856.25,-386.75,-34.75,413.25,347.5,-1250.5,0
-227.25,-200.25,594.75,-363.75,-17.0,158.25,-383.75,-1480.0,0
-59.75,-157.5,487.75,-425.0,48.75,-28.5,-715.0,-1899.75,0
-45.25,-109.75,783.25,-444.75,61.0,-344.5,-964.75,-2133.5,0
-162.5,-110.0,336.75,-431.0,-85.75,-675.25,-671.25,-2153.5,0
-288.25,-88.75,70.5,-409.25,-81.0,-1184.5,-161.25,-2155.25,0
-125.5,-130.75,522.75,-201.75,-81.75,-1320.75,-496.5,-2171.0,0
74.75,-201.5,643.75,-176.5,-61.25,-1332.75,-1056.0,-2170.25,0
-62.5,-289.0,746.0,-167.75,169.5,-1213.0,-654.5,-2156.25,0
-592.25,-352.25,678.0,-229.5,560.25,-1000.0,-810.5,-2157.5,0
-977.25,-324.25,491.75,-489.0,989.75,-837.0,-1156.0,-2099.5,0
-1034.0,-227.25,-1381.25,-666.25,1296.75,224.75,-968.75,-2031.75,0
-597.0,-136.0,-589.75,-510.25,1342.25,1250.0,-1283.75,-1946.0,0
-139.75,-107.25,34.0,-289.0,1539.5,1707.5,-1211.75,-1837.25,0
198.25,-65.0,-923.25,-229.75,1753.75,1829.75,-1268.25,-1594.75,0
227.25,-89.5,-2111.5,-72.75,2036.5,1811.75,-1523.25,-1358.0,0
-102.0,-140.25,-2148.5,26.75,1857.5,1704.5,-1714.5,-1109.75,0
-10.0,-121.0,-2033.5,64.5,1888.25,1371.75,-1888.25,-828.0,0
120.5,-189.75,-1233.0,162.75,2236.75,944.75,-1492.75,-741.5,0
-144.5,-308.25,429.0,443.75,2203.75,685.25,-1189.5,-443.25,0
153.5,-397.75,1827.5,765.25,2107.5,534.0,-1138.0,131.25,0
416.25,-557.0,1584.0,738.0,2017.0,351.25,-565.5,674.0,0
1081.5,-558.5,1466.0,683.5,1971.75,199.75,200.5,1267.5,0
1375.25,-414.5,1746.25,715.25,1951.5,-132.0,763.0,1488.5,0
1326.5,-396.5,1380.25,709.5,1972.25,-445.5,960.5,1655.0,0
581.75,-446.75,1539.25,728.75,2078.25,-726.75,1001.5,1869.5,0
384.25,-474.0,1644.75,475.25,2251.75,-882.75,1014.0,1949.75,0
344.25,-453.25,1410.75,206.0,2385.75,-1003.75,-739.25,1976.75,0
-58.5,-406.75,349.25,272.75,2464.0,-1097.25,-1092.75,1972.25,0
-250.25,-275.75,-694.0,188.25,2475.0,-1193.0,-1428.0,1849.5,0
-146.5,-210.5,-716.0,42.0,2074.25,-1314.25,-1329.0,1727.75,0
-33.75,-266.5,-352.75,5.5,1475.5,-1341.75,-1529.5,1608.5,0
-156.5,-315.75,356.25,-12.75,808.5,-1238.0,-1134.75,1570.0,0
-351.75,-402.0,763.0,-19.5,569.0,-1066.5,-139.5,1631.25,0
-82.25,-286.75,867.25,-29.5,293.0,-941.75,-6.75,1707.5,0
159.0,-113.25,1012.0,-134.5,10.0,-932.0,65.25,1778.0,0
363.75,-75.25,-1169.75,-276.75,712.0,-1066.75,211.0,1647.5,0
537.75,-9.75,-1699.0,-384.0,1144.75,-1300.0,309.0,1470.75,0
516.75,37.0,-2109.25,-514.75,1215.25,-1629.0,-150.25,1462.75,0
327.75,61.75,-1989.0,-385.25,988.0,-1839.5,-1550.0,1474.5,0
92.75,135.75,-1940.0,-129.5,661.5,-1718.5,-1468.0,1463.0,0
-164.75,87.0,-1968.5,-95.75,467.5,-1504.0,-235.75,1391.25,0
-451.75,41.5,-1606.0,-69.75,401.5,-1391.0,623.5,1325.5,0
-324.75,102.25,-538.75,-86.25,470.75,-1222.0,801.75,1202.5,0
-210.0,191.75,649.25,79.0,522.0,-1019.0,958.0,1071.5,0
-136.25,188.0,513.5,224.5,562.5,-712.25,486.0,1093.0,0
-262.0,22.75,583.25,49.25,581.0,-330.25,-741.25,1093.5,0
-595.75,13.5,823.5,54.5,285.75,-3.75,-541.5,1047.75,0
-565.75,149.0,1147.75,113.5,-276.5,162.0,-452.5,1125.25,0
-584.5,108.0,1657.5,79.5,-581.25,286.75,-480.0,1131.0,0
-503.25,-79.75,1731.0,15.25,-672.0,339.0,0.0,999.75,0
-524.25,-219.0,1248.5,4.25,-806.25,345.0,531.0,874.75,0
-442.25,58.0,527.5,24.0,-1121.25,354.75,-43.0,778.0,0
130.0,455.0,10.25,-98.25,-1287.25,469.75,56.0,815.25,0
358.5,420.0,373.25,-99.0,-1309.5,716.0,161.25,824.75,0
386.0,371.75,1090.0,41.25,-1073.5,599.5,367.0,814.0,0
254.5,237.0,1458.5,-40.0,-601.75,254.25,818.0,925.5,0
116.0,-380.25,1982.75,-630.5,-769.75,-93.25,1173.25,982.75,0
-80.5,-813.75,2080.0,-770.75,-866.5,-289.75,813.25,390.75,0
-341.5,320.75,1905.5,-522.25,-809.5,-105.75,740.75,101.0,0
69.75,941.0,1497.25,-427.25,-590.5,366.5,564.75,402.0,0
695.0,1014.25,1074.5,-394.0,-200.75,476.5,131.75,142.25,0
1089.25,1370.25,379.25,-354.5,99.0,241.25,89.0,132.5,0
1053.25,1201.5,-72.25,-441.25,68.5,199.0,244.0,300.5,0
429.75,1295.5,-102.25,-307.5,-217.5,303.0,113.5,499.5,0
31.5,1206.25,-252.75,-163.25,-249.5,638.5,9.0,504.75,0
-13.0,1097.25,-194.75,216.0,155.25,724.0,2.0,181.0,0
-262.5,1020.75,-339.5,499.5,597.75,764.25,217.5,32.5,0
-363.0,565.75,-598.0,589.75,964.25,683.75,253.25,-353.25,0
-547.5,374.75,-808.5,590.25,976.25,680.5,-317.75,-836.75,0
-752.0,182.5,-1129.75,523.0,625.75,1036.25,-1191.0,-986.5,0
-959.0,26.25,-1265.75,294.75,730.0,1268.0,-1274.25,-859.5,0
-845.25,-355.5,-1297.25,148.0,147.25,1214.75,-398.0,-846.0,0
-250.5,22.0,-1465.25,96.5,-984.75,1027.25,-165.25,-954.5,0
299.5,309.5,-1356.25,-82.75,-1149.75,1097.25,-777.75,-1016.0,0
426.75,163.75,-1270.0,-151.0,-1237.25,889.0,-1368.25,-1156.0,0
548.5,192.0,-1294.5,-185.75,-1177.75,584.75,-1622.25,-1135.25,0
652.5,139.0,-915.75,-176.25,-605.25,348.25,-1639.0,-1175.5,0
527.0,18.25,-335.75,-186.0,-402.5,230.25,-671.0,-1179.5,0
477.75,-229.5,55.5,33.5,139.0,114.75,-219.5,-1208.25,0
313.75,-286.5,289.75,378.75,198.5,15.0,-256.5,-1122.25,0
-2.0,-447.25,107.25,532.25,-126.75,145.5,-326.5,-929.25,0
-299.0,-640.75,573.25,300.0,-558.0,322.75,-945.5,-799.75,0
-148.75,-413.75,938.25,-17.0,-1125.0,407.75,-1145.5,-922.75,0
152.25,70.25,900.75,64.25,-1524.25,186.25,-74.75,-1112.0,0
-187.75,-28.25,513.0,159.5,-1171.5,-147.5,147.25,-858.5,0
-889.0,-544.5,17.25,42.0,-804.0,-289.5,-529.5,-496.0,0
-926.5,-510.0,503.25,106.0,-1250.25,-158.25,-1058.25,-454.75,0
-594.0,-424.0,492.25,260.75,-1892.0,-150.0,-804.5,-458.75,0
-479.25,-498.5,-91.0,256.75,-2112.75,-92.25,-410.25,-602.0,0
-227.75,-91.5,-35.0,227.5,-2162.25,-195.0,355.0,-595.75,0
-223.0,13.0,396.75,168.25,-2036.25,-676.25,666.75,-401.75,0
-32.75,5.5,980.5,-18.5,-2316.75,-980.5,1006.25,-257.25,0
571.75,152.75,256.5,-86.25,-2593.0,-1022.0,1039.25,41.25,0
629.25,90.5,-756.75,-114.0,-2728.25,-784.75,1566.25,368.0,0
481.0,80.25,-966.5,15.75,-2833.75,-786.0,1417.75,714.75,0
-118.75,37.5,-1334.0,15.5,-2640.75,-612.0,1061.5,1014.0,0
-308.25,136.25,-1293.5,-79.75,-2512.25,-476.5,716.5,1133.5,0
-745.25,-31.5,-1115.0,-121.25,-2547.25,-369.0,605.25,1099.0,0
-1247.25,-134.5,-1508.25,-249.25,-2580.75,-260.75,386.5,1141.75,0
-1270.5,38.75,-1159.25,-321.75,-2543.75,-215.0,344.75,989.5,0
-802.5,71.75,-1035.0,-374.25,-2261.5,-140.5,429.0,775.25,0
-351.5,87.0,-835.5,-502.0,-1894.0,75.0,628.0,658.0,0
26.25,70.5,-221.25,-566.0,-1542.5,165.25,707.5,547.25,0
497.0,81.25,333.75,-571.0,-1564.5,233.25,1313.75,576.25,0
572.0,146.75,308.5,-596.25,-1263.0,189.75,1881.0,623.0,0
479.5,145.25,239.75,-593.5,-649.5,245.5,2023.5,694.25,0
110.0,4.5,1080.75,-670.25,-515.0,128.0,1563.5,718.25,0
242.25,68.0,1159.5,-819.25,-282.75,143.25,795.0,763.0,0
464.5,247.75,964.5,-891.0,24.0,239.5,448.25,863.0,0
682.75,343.75,1186.75,-929.5,447.75,2.75,-254.75,997.25,0
808.0,269.75,1214.25,-804.5,638.0,-32.5,-483.5,1137.5,0
612.0,142.5,1023.75,-689.0,689.0,-15.75,-613.5,673.0,0
298.5,196.25,275.25,-825.5,762.0,-118.5,-876.25,381.5,0
-122.25,135.75,-270.0,-635.0,1431.75,-5.25,-1082.0,-0.25,0
467.75,30.5,-592.75,-428.75,1836.5,17.5,-1156.0,-213.25,0
1121.25,6.25,-782.5,-408.75,2049.25,-41.75,-957.0,-291.0,0
863.0,-45.25,-522.25,-237.75,2669.75,-159.75,-785.0,-317.5,0
301.25,-83.5,-798.25,-175.5,2552.25,-501.75,-587.75,-264.75,0
-113.5,-43.0,-1004.75,-49.0,2617.75,-801.0,-581.75,-272.5,0
-629.75,-35.75,-399.0,153.0,2532.75,-950.5,-445.75,-400.75,0
-779.5,-91.75,507.75,209.0,2567.5,-890.75,-358.5,-630.5,0
-1194.0,-176.75,1120.5,222.75,2535.25,-660.5,-286.75,-889.25,0
-1575.5,-274.5,1391.25,250.0,2467.25,-537.5,-288.25,-1069.75,0
-1199.25,-182.75,1028.25,397.25,2442.5,-721.25,-238.0,-1163.5,0
-24.0,-192.5,531.5,525.5,1721.0,-1048.25,-234.0,-1178.25,0
1099.0,-358.5,429.0,594.75,1206.5,-1254.75,-322.25,-1042.0,0
1727.5,-231.25,-553.75,605.25,540.25,-1048.25,-224.75,-812.25,0
1746.25,-55.5,-921.0,517.0,-3.25,-774.75,-77.25,-722.0,0
1694.0,22.25,-1221.25,456.0,-400.5,-531.5,27.5,-799.0,0
1544.0,10.0,-535.25,479.5,-789.75,-436.0,196.0,-1057.25,0
309.25,-15.75,875.75,464.0,-1057.25,-357.75,523.25,-1298.5,0
-1080.25,-125.75,1020.0,457.0,-1271.5,-259.75,628.0,-1295.25,0
-1260.0,-148.5,805.75,309.0,-1522.5,-79.75,794.0,-1241.75,0
-1174.0,-97.25,768.5,290.25,-1670.75,243.75,934.75,-1090.75,0
-1271.5,-231.25,628.5,356.5,-1581.25,657.25,1000.5,-990.0,0
-1160.0,-359.75,674.0,359.75,-1372.0,1099.25,1029.5,-799.25,0
214.0,-421.25,864.5,374.5,-1177.0,1611.75,1076.0,-561.25,0
975.25,-241.25,856.5,333.5,-1059.75,1837.25,1123.5,-361.75,0
990.5,-225.75,753.5,292.5,-1114.25,1861.0,1077.25,86.5,0
941.5,-269.75,201.75,233.5,-1203.5,1895.0,1059.25,236.25,0
812.5,-44.5,590.0,133.75,-1338.5,1899.75,1085.0,-64.25,0
724.75,46.5,844.0,34.75,-1196.0,1916.0,1140.25,-385.5,0
-349.75,-12.75,367.5,55.75,-616.75,1888.5,1175.25,-350.25,0
-1290.5,-20.25,-957.5,42.25,-44.25,1830.25,1183.5,-189.5,0
-1118.75,-37.75,-1167.25,128.75,414.5,1170.75,1183.0,186.0,0
-932.5,-6.75,-1313.25,180.5,418.25,481.5,1221.75,683.0,0
-850.75,-46.0,-1361.25,231.0,453.0,150.75,1267.5,881.5,0
-907.5,-158.0,-1277.5,256.0,716.0,410.75,1016.5,1159.0,0
-660.0,-122.0,-1336.75,156.0,1006.5,1053.75,469.25,1443.5,0
1718.75,-133.25,-1408.5,198.5,1204.25,1410.0,-153.5,1430.5,0
2039.25,-208.75,-198.0,287.5,1155.75,1481.75,-668.5,1411.25,0
1651.0,-239.0,790.25,332.75,951.5,1492.25,-702.75,1602.5,0
1188.75,14.5,894.0,72.75,627.0,1441.5,-712.75,1344.25,0
706.5,100.75,818.75,90.5,823.25,1271.75,-727.25,877.25,0
-292.25,-120.5,743.0,-2.75,909.0,1181.0,-713.75,760.5,0
-221.75,-171.75,893.75,-172.25,872.0,1143.25,-689.25,757.25,0
-685.5,-95.5,307.25,-196.0,864.0,626.0,-659.25,640.0,0
-1073.75,-86.75,384.0,-320.25,937.0,-351.25,-676.75,555.25,0
-1446.25,-34.0,981.75,-269.25,798.25,-941.25,-685.0,818.0,0
-1844.75,46.25,953.25,-360.25,771.5,-874.25,-669.0,1132.5,0
-1456.0,104.75,789.25,-344.75,706.5,-861.0,-643.0,1649.25,0
-155.75,414.0,329.25,-396.0,430.25,-894.25,-608.25,1958.5,0
537.25,361.5,-542.0,-438.0,738.5,-1001.25,-500.0,1743.25,0
637.25,194.25,-1064.75,-415.75,867.0,-1133.0,-411.0,1319.5,0
460.75,154.0,-1110.5,-352.0,1006.25,-1185.5,-330.5,937.75,0
59.25,15.25,-1224.0,-287.25,1122.25,-1362.75,-422.5,911.5,0
-394.5,-19.0,-915.5,-301.75,969.25,-1625.25,-533.25,1047.25,0
-1088.0,-165.75,92.0,-200.5,981.25,-1845.25,-737.0,1414.5,0
-1954.0,-162.25,335.0,-165.0,720.5,-1804.0,-791.5,1533.5,0
-1973.5,-122.25,356.75,-185.75,622.25,-1207.75,-851.0,1539.0,0
-1270.5,-163.25,913.0,-161.0,629.75,-757.0,-900.5,1570.75,0
-82.5,-179.5,1179.0,-138.25,456.75,-854.5,-899.25,1430.25,0
156.0,-155.25,1115.75,-81.5,562.0,-994.0,-915.75,1251.5,0
542.25,-65.25,1081.25,-109.5,451.5,-1311.0,-697.5,907.75,0
890.25,163.25,807.5,-148.25,437.75,-1786.75,-362.25,584.5,0
995.5,446.0,617.25,-157.25,308.25,-1989.0,9.5,268.5,0
437.0,627.75,277.5,-144.75,419.5,-1953.25,274.0,253.75,0
75.5,611.25,752.75,-52.25,820.0,-1714.75,400.0,356.75,0
-166.25,422.25,372.0,-44.0,794.0,-1239.5,289.0,546.0,0
-491.25,418.5,-842.25,-76.5,766.0,-621.75,272.25,795.5,0
-615.5,333.5,-1075.5,-102.75,582.0,-303.5,401.0,885.5,0
-124.25,113.25,-1144.75,-72.0,363.25,187.5,443.25,843.75,0
-67.0,2.5,-1077.25,-0.75,96.75,270.75,484.0,838.5,0
-307.75,-111.0,-899.0,-1.5,-787.0,274.75,489.25,952.25,0
-668.25,-241.25,-871.25,86.5,-1164.5,491.5,602.0,984.75,0
-448.75,-199.75,-507.25,232.75,-941.0,752.75,763.75,818.25,0
323.0,-33.25,6.75,162.25,-1310.75,904.25,868.0,672.5,0
527.5,-90.75,366.0,28.75,-1731.5,943.25,822.25,644.0,0
792.25,-193.75,772.25,-24.25,-1675.25,1085.5,844.75,526.25,0
1483.0,-214.75,936.5,-29.0,-1532.75,1183.25,901.5,435.25,0
1654.25,-218.5,962.75,15.25,-1506.25,1455.0,905.5,272.5,0
1275.0,-307.25,866.0,61.25,716.75,1546.25,916.0,94.25,0
595.25,-373.25,713.25,74.5,1229.75,1385.5,929.25,30.25,0
284.75,-147.5,268.5,48.75,1139.25,1499.0,936.75,9.0,0
-237.5,73.25,-130.25,4.25,768.0,1696.25,960.25,-172.5,0
-652.0,206.75,-270.75,0.0,232.0,1693.75,958.0,-355.25,0
-650.25,342.0,424.0,37.25,-473.0,1469.0,781.0,-433.5,0
-763.25,251.0,1108.5,29.5,-996.75,1281.25,495.25,-435.25,0
-291.0,116.25,1086.0,65.25,-827.5,770.75,313.75,-374.5,0
-168.25,-47.75,1126.0,29.25,-887.0,-256.25,584.25,-454.75,0
-263.0,-262.25,593.0,-25.25,-811.75,-747.75,1010.25,-609.25,0
-145.75,-355.0,-399.75,-73.75,-405.5,-1048.25,1035.5,-682.25,0
-176.75,-309.25,-1094.0,-166.75,-257.0,-856.75,1024.75,-729.5,0
11.5,-205.5,-1090.5,-63.25,-24.75,-823.0,993.5,-1004.5,0
345.0,45.75,-1026.5,6.75,-521.5,-676.5,963.75,-1033.5,0
726.25,324.25,-221.75,28.0,-843.75,-609.0,960.25,-760.0,0
750.75,146.75,725.25,70.75,-1075.25,-651.5,990.5,-653.75,0
767.75,27.0,780.5,100.0,-1363.25,-596.75,1088.0,-599.25,0
672.25,34.0,316.25,131.5,-1119.75,-379.0,1193.25,-894.0,0
209.0,-271.75,-562.75,-43.0,-957.0,-193.5,1109.5,-1343.75,0
132.75,-431.75,-1019.25,-157.75,-623.5,21.5,1131.25,-1280.25,0
90.75,-263.0,-917.25,-166.5,-330.0,140.25,1101.5,-869.0,0
-27.5,-76.5,291.5,-121.75,-168.75,209.5,1020.75,-468.75,0
193.25,135.5,785.5,-34.5,-92.25,341.5,883.25,-577.75,0
184.0,301.25,296.75,-46.0,415.0,343.25,767.5,-896.5,0
-110.75,175.5,-797.75,-112.0,791.5,275.25,784.25,-809.0,0
-200.5,8.5,-1035.0,-268.0,717.0,260.0,737.25,-843.5,0
184.0,107.75,-1001.5,-422.5,862.25,302.0,702.75,-982.0,0
617.75,437.5,-984.25,-497.0,899.5,278.5,823.5,-686.0,0
371.25,650.0,-316.5,-286.75,1737.25,293.25,859.25,-570.25,0
114.25,620.5,-67.25,100.75,2810.25,487.0,689.75,-473.0,0
75.75,314.25,353.25,-30.75,2213.75,508.75,745.75,-238.5,0
178.5,276.5,589.75,-438.75,1304.75,345.0,821.25,46.0,0
216.75,271.0,890.0,-83.5,2407.75,728.75,518.75,92.0,0
-292.25,-381.25,943.25,455.5,2766.0,1075.75,137.5,68.75,0
-556.75,-617.5,639.75,340.75,2261.25,1021.75,-44.75,378.25,0
-196.75,-23.0,112.25,-55.5,1779.75,825.5,-201.75,659.75,0
328.75,356.0,-396.0,-94.0,2056.25,628.0,-477.25,931.75,0
40.75,29.0,-631.75,576.0,2678.5,567.25,-808.75,1071.25,0
-580.5,-217.25,-122.5,391.25,2032.0,0.25,-848.75,1034.5,0
-179.25,202.75,425.75,-426.75,956.25,-425.75,-953.0,1067.75,0
126.5,427.5,635.25,-520.25,996.0,-403.0,-1482.25,1306.5,0
-221.75,132.5,901.0,99.75,1810.0,57.5,-1736.0,1851.75,0
-1019.0,-665.25,865.75,995.5,2076.0,609.5,-1528.25,2035.75,0
-1326.5,-701.25,1005.75,967.0,1782.5,302.75,-1046.5,1698.5,0
-1077.25,-326.0,975.0,806.5,1584.5,337.75,-1098.25,1358.75,0
-766.0,-495.75,661.75,936.75,1330.75,282.0,-1057.0,581.0,0
-206.5,-266.0,362.25,631.75,959.5,24.5,-1065.0,-87.75,0
125.75,13.75,4.5,468.0,1008.0,61.0,-1040.5,-667.25,0
96.5,-378.5,-468.75,268.75,822.25,84.5,-969.25,-1244.25,0
-0.5,-726.5,-975.5,238.75,788.75,281.0,-958.0,-1175.75,0
-185.5,-684.5,-896.0,280.5,636.5,305.75,-946.25,-1185.25,0
321.0,-590.25,-985.0,291.75,947.75,474.0,-984.25,-1158.25,0
501.25,-1321.25,-562.25,163.25,929.25,502.25,-934.25,-1151.25,0
68.0,-1497.5,108.5,-166.5,793.25,449.5,-994.5,-1151.5,0
-184.5,-807.0,254.75,-365.25,365.75,432.25,-964.75,-785.5,0
-632.5,-552.5,432.75,234.25,1684.75,385.5,-1108.5,-402.0,0
-1043.5,-535.25,566.5,562.5,1414.0,-105.0,-1055.75,-198.5,0
-506.25,191.75,590.5,444.0,1617.25,-1080.25,-879.25,-281.75,0
110.5,484.25,276.75,634.5,1706.25,-1351.5,-806.5,-178.25,0
62.75,256.5,47.25,465.5,1000.5,-1361.5,-683.25,102.75,0
-130.25,96.25,-202.0,297.25,1201.75,-1382.5,-724.25,424.5,0
-325.5,60.25,-239.25,205.75,509.75,-945.75,-655.25,550.75,0
-522.5,11.25,28.25,-57.75,347.25,-662.0,-638.5,794.0,0
-562.5,171.25,11.0,66.25,1089.5,-438.25,-650.0,819.25,0
-138.75,964.5,-50.0,14.5,1366.0,-83.25,-687.25,710.0,0
191.75,1290.5,23.0,28.25,1097.0,0.5,-718.25,720.25,0
377.5,1327.75,290.5,-123.75,605.5,126.75,-724.5,533.5,0
509.0,1069.25,579.25,-224.0,-974.25,162.25,-769.25,27.5,0
285.5,435.75,725.0,-381.75,-1868.25,121.25,-770.5,-613.75,0
84.75,40.5,558.5,-490.5,-1080.5,107.75,-785.75,-971.25,0
144.25,131.25,-19.0,-576.5,-1087.25,3.75,-770.5,-1119.75,0
153.75,5.0,-376.75,-678.0,-1024.0,-18.25,-790.0,-796.25,0
174.25,-185.0,-340.5,-683.5,-734.5,-89.25,-795.75,-581.75,0
197.5,-448.75,-163.25,-734.5,-1215.75,-65.25,-801.75,-435.0,0
3.5,-578.25,542.25,-653.0,-1186.5,-23.75,-530.75,-788.5,0
245.25,-511.5,902.5,-650.25,-675.75,-36.0,-392.75,-1129.25,0
449.25,-527.75,430.25,-606.0,-585.0,31.5,-340.0,-1051.75,0
-118.75,-103.75,-11.25,-519.5,-1047.75,130.0,-74.75,-1026.5,0
-198.0,114.5,-760.25,-525.25,-1701.25,198.25,791.0,-1012.25,0
109.75,370.0,-951.25,-608.0,-1460.25,157.75,1120.25,-1030.75,0
123.75,316.25,-1061.5,-565.25,-444.0,9.75,1088.25,-1025.75,0
177.0,-15.75,-1205.0,-576.75,-161.75,-102.0,1064.75,-983.75,0
298.25,-165.75,-677.25,-605.75,218.75,-93.5,1028.75,-867.5,0
675.75,32.5,42.0,-624.5,238.5,-38.25,623.0,-617.0,0
693.25,47.0,603.25,-576.0,481.0,162.75,492.25,-620.0,0
434.0,-778.5,720.75,-565.0,159.75,298.25,974.5,-721.25,0
364.0,-939.25,1116.0,-671.5,-148.5,362.0,979.0,-563.75,0
331.0,-999.25,1057.5,-639.25,65.0,478.0,953.5,-254.5,0
-151.0,-639.25,826.5,-629.0,-106.5,548.25,937.5,-112.5,0
-438.0,180.75,33.5,-561.25,-250.75,613.5,899.75,-162.0,0
-109.25,766.0,-386.75,-409.75,-110.25,671.75,859.75,-211.75,0
-192.25,1379.0,-521.25,-362.25,-265.75,635.75,923.0,-170.75,0
31.0,1741.0,-559.5,-387.5,-708.25,291.25,1245.0,81.25,0
351.0,1938.75,-183.0,-387.25,-875.75,162.75,1339.0,500.0,0
469.5,2030.5,462.25,-377.75,-1205.5,259.0,1260.75,740.75,0
581.0,2033.25,198.0,-339.75,-1029.5,359.25,1184.75,797.25,0
436.25,1621.75,-358.5,-232.5,-452.0,410.0,1107.0,1184.0,0
109.75,1132.75,-683.0,-205.75,-264.0,402.25,966.75,1745.5,0
-303.75,999.0,-931.0,-96.0,271.0,272.5,897.25,2008.75,0
-587.5,702.0,-782.0,12.75,432.25,127.75,834.25,2214.0,0
-688.75,357.25,-440.75,163.25,295.0,-41.5,848.0,2246.5,0
-435.0,563.5,401.5,301.25,-329.75,-260.75,879.0,2184.0,0
-225.75,504.0,478.0,369.25,-699.5,-466.25,914.75,2053.75,0
-45.25,231.5,74.0,372.25,-522.0,-463.5,840.0,1861.25,0
138.75,116.0,94.25,425.25,-270.25,-411.25,614.75,1769.5,0
12.75,-367.0,717.75,493.5,-306.5,-345.75,510.25,1558.25,0
-98.0,-941.5,1443.75,506.75,-336.0,-207.25,505.5,1124.25,0
-197.0,-1340.0,1700.75,506.25,-296.5,-71.25,481.0,379.5,0
104.0,-1015.5,1809.0,521.25,-271.75,53.75,249.25,-299.0,0
445.75,-521.75,1565.75,576.5,-197.0,239.5,86.25,-955.5,0
615.75,-322.0,50.75,523.75,-109.5,531.25,75.25,-1386.5,0
730.5,-103.75,-664.75,497.75,-122.5,660.75,186.5,-1761.5,0
584.75,-267.5,-1190.5,485.25,-163.75,485.25,220.0,-1944.25,0
106.0,-406.75,-1579.75,487.75,-366.5,38.75,245.0,-1868.25,0
-222.0,-527.5,-1931.25,493.25,-369.75,-430.5,340.75,-1979.25,0
28.0,-630.0,-1456.0,468.75,-397.5,-771.25,489.25,-2110.25,0
365.5,-558.0,-764.0,444.75,-337.75,-914.0,801.5,-2198.5,0
620.75,-428.0,-157.25,387.75,-243.25,-951.25,955.75,-2232.25,0
534.25,-244.5,223.75,317.5,-274.0,-977.5,891.5,-2084.75,0
235.25,-277.0,751.5,218.25,31.75,-675.75,803.5,-1987.5,0
30.5,-242.25,1345.5,185.75,169.25,-320.5,774.75,-1870.0,0
449.75,-242.5,225.5,238.75,145.25,-140.0,700.75,-1873.25,0
754.5,-423.25,-572.5,252.0,-46.5,-193.75,594.5,-1981.5,0
796.0,-643.25,-522.0,220.0,-565.0,-251.25,318.75,-2018.75,0
322.25,-711.5,-48.25,172.5,-657.5,-201.75,202.25,-2066.0,0
-239.25,-396.5,-84.25,137.75,-486.0,-128.25,508.25,-2030.0,0
-384.0,101.5,-877.25,178.5,143.5,178.0,865.0,-2072.75,0
-672.25,864.0,-1272.5,208.5,986.75,424.5,1070.25,-2011.75,0
-1000.5,983.75,-723.75,164.0,1669.0,462.75,1131.25,-1855.25,0
-533.0,211.5,280.0,103.5,1896.75,379.5,883.75,-1645.25,0
332.25,-424.0,980.0,61.25,1942.5,237.25,449.0,-1545.5,0
1181.0,-1120.75,1094.75,26.5,1871.5,31.25,52.25,-1532.0,0
1658.75,-1642.25,937.25,9.0,2000.5,-72.0,-530.5,-1430.75,0
1872.0,-1458.75,807.0,36.75,1708.5,21.75,-1262.25,-1047.75,0
1573.75,-1097.5,-161.75,102.0,1211.75,111.25,-1286.0,-585.25,0
840.75,-382.5,-1190.75,188.75,1370.75,162.0,-1193.5,-282.75,0
-74.25,110.5,-1448.0,288.0,1544.5,190.75,-974.0,39.0,0
-577.0,1043.0,-1486.75,406.25,1772.75,324.75,-1088.0,426.0,0
-1133.5,662.0,-1481.0,515.75,2437.75,653.5,-1353.5,835.25,0
-2197.25,-796.75,-1387.5,514.0,2648.25,887.5,-1309.75,1124.75,0
-2128.25,-1268.5,-717.25,531.5,2263.5,821.5,-1203.0,1177.5,0
-1965.0,-1514.75,-203.0,393.75,1674.0,617.25,-1111.75,1150.75,0
-759.25,-1422.5,-157.75,110.75,990.25,523.75,-979.0,1173.5,0
-735.0,-1241.5,76.0,-89.25,224.5,364.75,-772.0,1124.0,0
-1858.75,-927.75,103.0,-155.0,-100.25,352.0,-727.5,1107.5,0
-2103.5,-483.25,220.75,54.0,234.25,336.75,-899.5,1112.5,0
-2431.5,-139.25,245.0,168.5,475.0,297.0,-987.0,1100.5,0
-2010.75,486.0,444.25,-82.25,342.5,268.0,-865.0,1087.25,0
-1301.75,759.75,858.75,-127.0,362.75,305.25,-745.75,1102.75,0
-208.25,844.75,1029.75,-71.75,303.0,373.25,-665.5,1127.75,0
-205.5,504.5,736.75,25.5,182.25,428.5,-651.25,1109.5,0
-906.0,406.5,363.5,88.0,-155.25,443.0,-557.25,1099.5,0
-1368.75,444.25,216.0,-38.5,-531.5,410.75,-596.25,1074.75,0
-610.0,443.75,428.5,-305.0,-804.75,357.25,-742.25,1090.0,0
-182.75,508.0,786.75,-311.0,-827.25,306.0,-775.5,1212.0,0
-491.25,160.5,825.25,-123.25,-638.25,300.0,-582.5,1327.5,0
-2.0,30.75,864.0,-161.5,-587.25,267.75,240.75,1446.0,0
983.75,56.5,899.75,-233.0,-827.5,272.5,605.25,1594.5,0
1176.5,119.0,1351.5,-227.5,-925.25,306.25,821.0,1695.0,0
1223.5,91.5,1228.25,-80.0,-752.0,304.0,1076.0,1646.75,0
1516.5,57.75,557.25,-66.75,-750.75,286.0,1305.25,1505.75,0
1336.5,95.75,189.0,64.75,-681.5,174.0,1239.75,1502.0,0
1519.25,-52.0,-501.75,235.5,-888.0,-29.75,1187.5,1405.75,0
1772.5,-72.75,-768.5,187.5,-1066.25,-160.25,1207.5,1136.0,0
1132.75,-58.5,-772.5,187.25,-1012.0,-374.0,1170.25,790.25,0
780.75,-35.25,-476.25,86.0,-962.75,-559.0,1124.0,466.0,0
488.5,0.75,28.5,85.5,-975.75,-562.5,1112.75,299.25,0
674.0,-14.25,-248.25,-22.0,-1071.5,-639.25,1140.75,422.75,0
1158.75,56.75,-381.0,-212.25,-1011.25,-662.5,1108.75,435.5,0
1070.0,213.5,84.5,-549.75,-1157.25,-685.75,1128.0,353.25,0
1124.75,441.5,153.0,-987.75,-1268.0,-724.5,1215.75,416.25,0
1275.75,689.25,-70.75,-973.75,-1143.0,-732.0,1290.25,273.25,0
1636.5,722.25,10.0,-912.25,-1116.25,-741.0,1425.75,131.75,0
2136.75,732.25,123.75,-851.75,-1275.25,-583.0,1562.25,54.25,0
2954.5,790.25,100.25,-798.25,-1076.75,-416.25,1475.5,49.0,0
2826.25,742.75,207.5,-718.75,-669.5,-267.25,1038.25,223.5,0
2458.5,699.5,666.25,-615.75,-441.75,-31.0,456.0,395.75,0
1454.5,593.25,540.5,-543.25,-163.5,151.5,296.25,623.0,0
226.75,389.25,167.0,-483.5,166.25,245.0,365.0,686.5,0
-1106.0,267.75,203.0,-367.0,344.5,394.5,167.75,508.0,0
-1103.5,151.75,388.25,-249.25,261.0,399.75,-190.75,272.25,0
-1027.5,137.5,979.75,-151.5,88.5,494.5,-525.0,134.5,0
-1570.5,180.5,1269.0,-38.25,-1.25,660.25,-744.25,98.0,0
-2282.25,284.5,991.75,61.25,651.25,636.25,-870.0,106.25,0
-2299.0,284.0,92.5,83.75,858.75,542.25,-774.75,5.0,0
-1567.25,238.25,-702.0,119.5,698.25,500.5,-499.75,-230.75,0
-213.5,178.5,-892.0,182.25,815.5,508.0,-279.25,-249.5,0
618.25,93.0,-1086.0,171.5,534.25,478.0,-208.75,-288.25,0
340.75,20.25,-1191.75,214.5,536.25,603.75,-444.5,-150.75,0
-915.5,-424.25,-995.0,616.75,747.0,1006.75,-1202.5,389.5,0
-1494.5,-560.5,-1244.25,995.25,391.75,913.5,-1952.0,294.5,0
-1813.5,-405.25,-1646.5,836.75,150.0,668.5,-1944.5,249.75,0
-1561.25,-419.75,-1916.75,584.0,118.25,597.5,-1554.5,549.5,0
-871.25,-463.5,-2102.0,498.5,92.75,316.25,-1264.25,467.25,0
-347.0,-292.25,-1246.75,263.25,-32.25,-64.0,-823.5,388.25,0
-165.5,-264.75,34.75,296.75,-393.5,-362.5,-577.5,198.75,0
-161.0,-59.0,580.75,119.5,-599.0,-635.5,396.25,176.0,0
-582.0,-77.25,818.0,43.0,-736.0,-426.25,1004.25,329.75,0
-934.75,23.75,624.75,-85.5,-1006.5,147.5,1637.0,206.0,0
-816.0,63.25,578.75,-289.0,-915.0,796.0,1885.0,212.0,0
-389.25,128.0,562.0,-376.5,-611.75,957.5,1909.25,223.0,0
521.25,207.5,312.75,-455.25,-554.5,826.25,1967.5,131.25,0
1326.0,220.0,12.75,-501.0,-595.25,492.25,1976.0,-123.75,0
1402.0,247.75,-244.0,-553.25,-592.75,177.25,2038.75,-320.0,0
1120.75,191.0,-307.25,-486.5,-897.75,-108.0,2048.25,-350.25,0
913.0,278.5,86.0,-472.75,-1336.0,-473.0,2108.25,-172.75,0
554.0,301.75,351.0,-417.5,-1595.5,-775.25,2116.25,103.25,0
-58.5,356.5,248.0,-350.0,-1421.25,-980.25,2060.75,234.75,0
-100.5,357.25,151.0,-245.5,-1195.5,-1039.25,1792.5,152.75,0
-132.75,349.75,-80.0,-235.75,-1114.5,-1014.75,1481.0,-93.5,0
144.75,358.25,50.5,-235.75,-485.75,-715.25,1152.5,-362.0,0
504.0,336.75,190.25,-211.0,259.0,-846.75,817.25,-597.75,0
894.75,298.25,212.5,-213.0,235.75,-881.75,523.75,-834.5,0
120.75,229.5,375.75,-190.25,-99.25,-919.0,264.75,-963.5,0
30.5,203.5,382.5,-183.5,-201.0,-1152.75,67.5,-870.5,0
813.0,144.5,524.75,-107.25,-420.75,-1551.0,-237.75,-933.75,0
1062.25,64.5,418.5,-68.0,-370.75,-1988.75,-449.25,-1013.5,0
859.25,-79.0,103.5,-37.75,-11.75,-1852.75,-644.75,-1098.75,0
390.75,-144.5,-9.75,-8.25,174.75,-1436.0,-822.0,-1177.0,0
-49.5,-217.5,193.0,29.0,-135.25,-1166.5,-949.75,-1000.25,0
-815.75,-276.75,569.75,-21.75,-552.0,788.75,-913.75,-1002.0,0
-1147.75,-332.5,488.5,-107.75,-476.5,936.0,-820.5,-991.5,0
-1474.0,-403.5,-127.5,-194.0,-751.75,918.75,-875.0,-877.25,0
-1467.75,-322.25,-684.0,-268.5,-954.25,974.0,-944.0,-879.0,0
-1032.5,-305.75,-403.75,-285.5,-877.75,1067.5,-950.25,-771.25,0
-585.75,-319.75,391.75,-356.5,-674.75,1081.75,-916.75,-579.25,0
142.75,-365.0,621.0,-365.5,-370.0,1104.5,-914.75,-263.5,0
646.0,-395.0,539.25,-350.0,-221.75,1075.0,-901.75,108.25,0
847.5,-381.5,496.0,-325.75,-165.0,1085.0,-843.5,217.0,0
830.25,-299.25,-596.25,-282.5,-270.0,1113.5,-775.25,256.25,0
989.25,-208.0,-1011.25,-248.75,-1103.25,1174.25,-772.0,278.25,0
533.0,-172.25,-1031.5,-184.25,-1334.75,1208.25,-678.0,163.25,0
-147.5,-73.0,-1014.25,-75.0,-1477.0,1196.25,-424.75,21.75,0
-202.5,51.5,-542.25,53.75,-1619.0,1134.25,-224.25,-36.5,0
-124.5,162.5,-19.0,100.75,-982.5,1188.0,-168.75,131.25,0
-163.75,143.75,407.75,77.5,-695.5,1292.25,-153.25,338.25,0
-362.0,96.75,388.5,90.75,-4.0,1277.25,-140.25,328.75,0
-104.0,127.75,503.75,187.0,-139.0,1225.25,-265.5,256.0,0
413.5,121.5,637.5,206.5,-303.75,1150.0,-261.25,214.0,0
292.5,97.0,681.5,194.75,-244.75,1172.5,-198.25,174.5,0
175.25,3.5,631.25,195.25,-35.5,1199.0,-239.25,96.75,0
130.25,-132.75,547.0,200.5,402.0,1178.5,-383.25,-66.0,0
163.75,-219.25,542.0,227.75,681.5,1050.25,-433.5,-186.0,0
-1354.75,-233.5,254.0,255.5,664.75,811.5,-258.75,-276.75,0
-1660.5,-118.5,29.5,324.0,463.0,277.0,-145.5,-236.25,0
-1553.0,-25.5,-316.5,358.0,386.75,-298.25,-525.25,-147.25,0
-1247.25,-87.25,-875.5,413.0,558.75,-704.75,-1096.75,-137.0,0
-1033.0,-184.0,-947.5,433.25,518.25,-1008.75,-1083.75,-48.5,0
-858.75,-153.5,-611.25,440.25,209.0,-1113.75,-636.75,15.25,0
-16.5,-176.5,-669.5,451.25,230.0,-1155.25,93.25,64.5,0
869.5,-224.5,-220.75,432.25,557.25,-1091.0,556.25,127.75,0
1013.5,-209.0,568.75,430.0,738.5,-1121.5,682.0,195.25,0
761.25,-158.75,891.75,432.5,922.75,-1252.0,936.25,273.5,0
836.0,-70.0,923.25,430.0,1120.0,-1292.5,1323.5,314.25,0
-460.75,-107.5,934.75,429.0,1002.0,-1222.0,2137.75,343.75,0
-763.0,-147.5,936.75,450.25,954.25,-1038.25,2187.75,339.5,0
-648.75,-155.75,909.25,457.5,973.25,-699.25,1857.0,264.0,0
-559.75,-102.25,695.25,408.75,1074.5,-618.75,1360.0,206.25,0
-508.5,-59.25,212.5,276.25,1130.25,-741.5,1430.0,111.0,0
-495.5,-65.75,-18.25,134.75,929.25,-813.5,895.5,-96.75,0
-582.5,-36.25,242.0,30.75,680.75,-928.75,-555.0,-220.0,0
-616.0,-27.5,246.0,-52.5,753.5,-968.5,-1432.25,-307.0,0
-720.75,-20.75,47.0,-117.0,737.5,-946.5,-2151.25,-469.0,0
-188.0,-26.25,-207.0,-178.5,493.5,-1029.25,-2506.25,-479.25,0
398.5,3.5,-414.25,-199.75,535.75,-1000.0,-1962.25,-297.75,0
857.0,61.75,-476.75,-242.25,320.75,-924.25,-1218.5,-402.75,0
1102.25,116.5,-546.75,-221.5,-309.25,-1009.5,-349.25,-589.75,0
932.75,84.75,-625.5,-220.5,-420.5,-894.0,360.25,-261.25,0
254.5,30.0,-656.75,-230.5,-934.0,-813.75,194.75,103.0,0
-518.25,30.0,-427.25,-172.25,-1257.0,-876.0,-223.25,85.0,0
-50.25,20.0,-136.75,-156.5,-1383.25,-752.0,-1576.75,-100.5,0
392.5,-1.75,7.75,-124.75,-1309.75,-642.75,-1853.75,-195.25,0
923.75,15.25,115.0,-107.0,-1294.5,-523.0,-1238.75,-112.75,0
1223.5,70.75,154.0,-104.0,-1319.5,-273.25,-1063.0,-90.25,0
1440.25,101.5,-192.0,-110.5,-1356.0,-409.5,221.75,-161.75,0
1457.5,130.25,-316.5,-79.0,-1530.0,-479.5,251.0,-285.25,0
983.0,92.75,-6.75,-26.25,-1461.5,-145.75,119.25,-469.25,0
934.75,34.0,-55.75,2.0,-1256.25,-296.25,-1228.25,-718.25,0
714.5,-9.75,-248.75,81.25,-1122.5,-716.25,-1672.5,-964.0,0
885.5,-70.0,-563.25,222.25,-776.0,-808.5,-1444.75,-1008.75,0
952.0,-118.5,-750.0,477.0,-938.75,-740.0,-1868.25,-948.25,0
897.5,-157.25,-769.75,823.0,-903.25,-553.25,-1900.25,-974.0,0
282.75,-122.0,-502.25,1073.5,-660.5,-355.25,-1463.0,-862.25,0
-217.0,-63.75,77.25,1055.25,-322.25,-88.75,-1107.25,-690.0,0
-146.25,2.75,457.75,1020.0,-171.25,452.75,-1714.0,-609.25,0
-330.25,98.75,875.5,727.0,316.5,989.5,-2007.25,-515.75,0
-128.75,184.25,1071.25,353.25,716.75,1133.25,-540.75,-373.0,0
89.5,231.5,932.5,102.0,877.0,1054.25,-117.5,-297.75,0
768.5,214.0,906.75,22.75,1129.25,1185.75,-221.5,-221.25,0
1052.25,172.75,461.25,-40.0,1255.75,1428.75,-143.25,-51.0,0
391.25,2.25,-261.25,-20.5,1385.25,1462.5,74.0,35.5,0
-421.25,-249.25,-633.25,50.75,1436.25,1088.5,105.5,35.0,0
-193.25,-227.25,-807.25,-13.5,1386.5,959.75,-212.75,19.5,0
933.5,-18.5,-239.25,-343.25,957.25,640.5,933.75,-32.75,0
1207.5,173.25,454.5,-622.5,566.75,100.75,1951.75,-242.25,0
193.5,529.0,386.25,-616.0,602.75,349.75,1548.0,-405.5,0
-172.75,771.5,245.0,-566.0,634.75,406.0,421.5,-275.25,0
16.5,798.0,244.5,-599.75,647.75,137.0,353.5,-59.5,0
504.25,759.75,248.0,-675.0,463.25,35.0,307.5,203.25,0
1241.25,710.25,462.75,-804.25,828.5,-168.25,158.25,364.0,0
1164.75,756.25,631.5,-661.75,947.75,-329.75,998.5,211.0,0
-785.0,696.0,355.75,-588.75,882.0,-618.75,1813.5,-2.5,0
-758.0,551.5,392.75,-482.0,1028.5,-528.25,1738.5,-88.5,0
-755.25,351.0,789.5,-460.25,1061.25,-478.5,1720.5,86.25,0
-637.5,155.0,748.25,-474.75,1113.5,-415.25,1659.0,193.25,0
543.75,145.25,852.0,-408.5,1257.25,-446.0,1666.25,199.5,0
73.0,-52.25,1132.25,-323.0,1280.75,-405.25,133.5,311.75,0
-632.75,-207.25,960.75,-308.75,1450.5,-212.0,-217.75,223.75,0
-733.75,-265.25,-283.0,-386.75,1724.5,-524.5,498.75,134.25,0
-899.75,-256.5,-1520.25,-427.75,1635.75,-1000.0,675.25,109.25,0
-943.0,-320.75,-1664.25,-435.0,1309.75,-939.0,290.0,75.25,0
-542.0,-369.5,-1742.75,-316.75,852.5,-401.25,539.25,57.5,0
565.5,-266.75,-1744.75,-227.5,853.5,-30.25,1301.5,86.75,0
34.5,-161.5,-1254.0,-235.75,759.25,105.75,719.75,286.75,0
-395.5,-96.5,-711.0,-294.25,564.25,398.0,-334.25,519.5,0
104.0,-105.75,-787.5,-252.75,810.5,493.5,-1066.5,578.0,0
1099.75,-54.0,-1150.0,-258.0,1276.5,19.75,-1571.5,540.25,0
1166.25,-43.0,-881.0,-248.25,1352.25,-539.75,-1491.75,610.75,0
731.0,-49.5,-204.75,-219.75,1215.75,-376.75,-1187.75,416.75,0
888.0,-101.25,161.0,20.5,1294.5,447.5,-554.0,464.75,0
-195.75,-741.25,698.25,239.25,1140.75,778.5,-492.5,1121.5,0
-848.75,-1103.0,443.0,197.25,301.0,527.75,-425.5,1082.75,0
-2213.0,-1223.75,-106.0,178.75,-872.25,196.25,-632.0,791.0,0
-2018.0,-1255.0,-379.0,188.5,-1267.0,98.5,-880.25,749.75,0
-1258.0,-709.75,-314.0,168.25,-1299.0,-305.25,-1038.5,841.0,0
-545.75,-316.0,42.75,129.75,-955.0,-462.0,-1077.25,893.5,0
176.5,-219.5,-243.25,41.25,-184.5,-52.25,-991.25,926.0,0
450.75,-114.0,-106.0,-28.0,-105.25,113.5,-625.5,820.25,0
-418.5,-18.75,-161.0,-83.25,-339.75,94.0,2.75,599.75,0
-42.0,457.75,-11.0,-61.0,-1197.5,178.5,88.75,317.75,0
391.75,463.0,384.5,-143.25,-1887.5,259.0,-295.25,-838.5,0
-160.75,409.75,461.25,-104.0,-2087.25,191.75,-614.5,-1629.0,0
-258.0,212.75,393.25,-117.25,-1106.25,171.0,-979.5,-1205.75,0
-507.5,-507.0,-183.25,-185.25,-96.25,145.5,-816.0,-827.25,0
-376.25,-923.75,-325.25,-169.5,210.25,293.5,-831.75,-662.75,0
-635.75,-938.5,-205.75,-221.5,1052.25,427.5,-921.75,-646.25,0
-378.75,-374.25,-83.5,-262.5,1950.25,500.5,-974.0,-418.5,0
522.25,-1.75,291.25,-270.75,1846.0,552.25,-194.25,-727.25,0
456.25,105.25,873.5,-230.0,1151.0,584.25,1284.5,-1081.25,0
-149.0,132.0,1049.25,-184.25,809.5,544.75,1706.5,-624.0,0
-578.5,251.5,565.25,-151.5,-62.25,305.5,1858.0,-512.5,0
-570.0,428.75,-762.5,-160.0,-1306.75,94.5,1949.0,-332.75,0
31.25,491.5,-1069.25,-19.25,-1637.5,-19.5,1767.75,112.75,0
544.5,466.0,-933.25,162.0,-2027.0,-37.75,1317.5,432.5,0
120.25,418.0,-609.0,195.75,-2091.75,-30.0,1008.0,568.5,0
-580.5,335.0,-444.5,216.75,-2115.75,19.0,822.25,538.75,0
-560.0,260.25,61.5,160.5,-2086.75,52.25,807.5,321.0,0
20.25,328.5,356.25,96.25,-1985.75,126.5,1480.75,250.25,0
200.0,362.0,255.75,0.25,-1768.5,86.5,1762.5,409.0,0
258.25,335.0,270.0,6.75,-1157.25,82.0,1362.0,746.0,0
546.0,323.0,9.5,126.75,-691.0,140.75,711.5,1061.5,0
761.75,374.0,-684.0,232.75,-109.0,163.0,276.25,1203.5,0
434.0,453.75,-727.0,377.75,63.0,260.5,104.0,1188.75,0
-29.25,486.5,498.5,313.25,-1208.75,263.0,454.75,952.5,0
-60.75,353.5,1076.25,177.75,-1879.75,317.0,661.75,746.25,0
-75.0,103.25,332.5,96.0,-1598.5,310.5,654.75,145.5,0
474.75,-50.75,127.75,-50.25,-797.75,302.75,576.25,-599.75,0
831.5,-187.0,0.0,-97.75,396.25,302.0,304.25,-943.0,0
-51.5,-163.5,-202.0,-153.75,758.25,243.5,618.75,-1281.25,0
216.75,-122.5,-220.75,-75.5,265.25,261.0,1070.75,-1489.0,0
-107.0,-81.75,136.25,-6.25,47.5,237.5,1625.0,-1467.5,0
159.75,48.25,1009.75,38.5,385.0,267.25,1448.75,-1308.75,0
-805.0,143.5,971.0,190.0,502.0,272.0,1172.25,-1075.75,0
-1206.75,202.75,189.25,251.75,888.75,238.75,1096.75,-850.5,0
-1274.75,124.5,24.75,284.75,1491.0,205.0,1092.0,-526.75,0
-1062.75,4.0,685.75,131.75,1116.0,172.75,1054.5,-440.25,0
-601.75,145.5,674.25,-16.5,499.0,181.5,1034.25,-148.0,0
1485.75,406.75,582.0,-33.0,631.25,146.75,997.5,279.75,0
1453.75,330.0,57.75,-69.0,1992.5,111.5,1042.0,589.5,0
1163.5,142.25,255.5,-152.75,2801.5,74.0,1127.25,948.25,0
476.25,-79.5,881.0,-129.25,2953.75,46.75,1097.25,1230.0,0
-1103.0,-178.5,1916.0,16.0,2719.0,-17.0,1101.25,1173.25,0
-2217.5,-156.5,2254.0,35.0,1924.25,-71.25,1230.0,1284.75,0
-2074.75,-392.5,1012.75,11.25,1472.25,-91.75,1214.0,858.25,0
-1272.0,-467.25,-982.75,-1.5,1181.0,-81.0,1108.0,743.0,0
-100.0,-108.5,-1274.5,-28.5,1413.75,-112.75,1261.75,1158.0,0
1160.0,45.25,-1390.25,88.25,1564.0,-168.25,1433.0,1273.5,0
1567.25,180.75,-1071.75,238.25,1311.25,-134.25,1512.0,1264.5,0
1524.5,466.75,-520.5,279.75,1149.75,-103.75,1638.75,1070.0,0
2124.25,354.5,-602.25,192.0,777.0,-85.75,1607.5,842.5,0
2009.0,256.0,-1000.25,120.5,594.75,-64.5,1368.25,701.25,0
1566.5,196.75,-825.0,347.0,491.5,-21.5,1187.75,371.5,0
935.5,123.25,-615.5,700.0,319.25,-10.0,943.25,158.0,0
1381.0,159.5,-685.0,741.25,273.25,-41.25,530.75,-145.25,0
1238.75,148.5,-811.75,501.75,301.0,-48.75,399.5,-365.25,0
817.25,-298.5,-452.25,318.5,593.75,-51.25,50.0,-528.5,0
-134.25,-809.5,-269.5,160.75,801.5,-96.75,-334.75,-85.75,0
-1373.25,-939.0,-561.5,-31.0,97.5,-90.5,-544.0,-58.25,0
-1464.5,-859.25,-303.75,-121.5,-493.25,27.5,-906.75,-508.0,0
-1714.0,-507.0,-211.0,-106.75,-224.75,93.75,-1421.75,-430.0,0
-1564.25,-239.75,-390.25,5.0,431.5,127.5,-1485.5,-491.0,0
-1095.0,2.75,-38.25,114.25,898.0,125.25,-1360.25,-169.75,0
149.75,196.0,744.75,191.25,244.75,135.75,-1365.75,243.5,0
382.25,112.5,1258.5,359.75,-509.5,310.25,-1280.25,468.75,0
133.0,140.75,956.5,524.0,-495.25,363.0,-1174.0,246.25,0
-132.25,23.5,827.5,495.0,-745.75,226.25,-1110.0,478.0,0
-216.25,-199.25,665.5,334.0,-1256.5,255.0,-952.0,898.5,0
158.5,-206.0,824.5,195.0,-1336.75,316.25,-784.0,990.0,0
153.25,-159.5,213.5,225.5,-1169.25,281.0,-738.0,1139.25,0
661.75,-143.0,-649.0,334.0,-1609.5,490.5,-765.0,853.0,0
821.75,-126.25,-1256.0,257.5,-1411.0,817.0,-816.75,291.5,0
973.0,-96.75,-1128.0,-68.5,-1207.0,798.75,-767.5,133.0,0
1199.5,-61.5,-192.75,-286.25,-837.0,336.0,-616.5,-400.5,0
593.25,53.0,7.75,-219.0,16.0,-414.0,-522.5,-1053.5,0
-58.75,182.25,-241.5,-349.25,451.25,-1017.0,-422.0,-1305.75,0
-265.25,342.25,-672.5,-662.5,317.25,-1012.75,-328.0,-788.5,0
-353.0,492.5,355.25,-859.25,254.5,-998.25,-108.25,-102.75,0
-775.75,557.0,848.0,-867.75,223.5,-975.5,195.25,440.75,0
-170.0,533.75,767.25,-765.0,437.75,-949.5,432.0,766.5,0
276.25,314.25,215.0,-698.25,1086.0,-915.0,578.25,232.0,0
801.0,47.75,-305.5,-345.0,1048.0,-868.5,672.0,-83.75,0
1463.0,-129.25,-312.25,286.5,559.75,-813.25,635.25,-584.0,0
1558.0,-281.25,346.25,879.5,-44.75,-841.75,507.0,-1004.25,0
1428.75,-337.0,979.25,915.5,-64.0,493.25,463.75,-163.5,0
470.75,-226.25,1004.5,1026.5,316.0,1011.5,505.75,591.75,0
-644.0,3.25,1013.5,1005.0,256.0,833.75,457.25,368.5,0
-1269.0,234.75,1015.75,562.5,59.25,657.75,252.5,392.25,0
-1683.5,240.0,785.25,86.75,-317.25,534.0,0.5,330.75,0
-1904.25,-56.75,474.75,-406.75,-300.25,409.75,-236.0,303.0,0
-1254.0,-220.75,550.5,-770.75,-234.75,326.5,-529.0,-96.75,0
-626.25,-219.0,-1203.25,-984.25,83.25,560.75,-724.0,-1553.25,0
-118.0,-241.25,-1000.5,-926.5,450.0,643.25,-898.5,-1563.25,0
66.25,-210.25,-869.0,-914.5,203.0,-113.5,-1040.5,-1428.0,0
-66.75,-190.75,-821.75,-957.75,-604.75,-800.75,-1118.5,-1311.0,0
17.0,-150.25,-910.25,-968.5,-346.25,-483.75,-1144.0,-1236.25,0
217.75,-255.0,-1095.25,-857.5,320.5,269.5,-1197.75,-1154.0,0
-20.75,-220.5,-1429.5,-753.75,-750.0,982.5,-1203.0,-1081.0,0
-542.25,-106.25,-1748.5,-569.25,-1165.25,1070.5,-1172.75,-1057.5,0
-507.75,-93.5,-1820.0,-261.75,-475.25,1007.5,-1178.5,-1066.0,0
-492.75,-6.5,-366.5,114.75,-505.5,471.5,-1216.0,-1064.75,0
285.75,-56.0,-98.25,363.75,-350.5,-247.25,-1245.0,-450.0,0
754.25,-145.0,799.25,283.5,40.0,-674.25,-1230.75,1041.25,0
1369.75,-168.75,1112.0,103.75,549.75,-752.25,-1154.0,1122.25,0
1835.25,-49.0,1272.0,-35.75,818.25,-709.5,-1089.25,1180.25,0
1693.75,130.75,1050.25,-54.75,1113.75,-533.25,-1184.5,1236.5,0
1587.0,235.0,697.25,-200.0,1047.25,-185.25,-1351.75,845.0,0
749.0,144.0,667.5,-358.5,958.25,-302.5,-1341.25,-310.25,0
-216.75,58.75,1262.5,-401.5,682.0,-536.75,-1297.0,-706.25,0
-533.0,213.5,1455.25,-546.0,739.0,-862.25,-1429.75,-663.5,0
-1005.5,421.5,852.75,-373.75,372.5,-1379.5,-1421.0,-257.5,0
-1614.75,282.5,428.5,-5.25,-221.75,-1505.75,-1326.5,587.75,0
-1700.75,96.5,-136.0,377.75,-1009.25,-1675.0,-1193.25,1254.5,0
-2002.0,271.25,-410.0,532.25,-1908.5,-1712.0,-998.5,1225.75,0
-1802.5,206.75,-363.75,701.75,-1857.5,-1530.0,-869.5,1266.75,0
-142.75,38.25,152.25,780.5,-1946.25,-1172.5,-637.25,1298.25,0
299.75,-76.0,503.75,873.25,-1924.5,-793.5,-745.0,1240.0,0
519.25,-45.0,349.5,865.25,-2020.0,-351.75,-843.25,1236.25,0
1024.0,143.75,607.0,944.25,-2001.75,175.0,-807.0,1336.25,0
1191.0,9.5,629.0,598.5,-2117.75,415.25,-1092.0,1338.5,0
1113.25,-203.5,684.25,-23.25,-2152.0,348.0,-1518.75,1270.75,0
417.25,-238.5,334.75,-516.5,-1891.75,431.75,-1759.75,1153.5,0
219.25,-331.5,179.25,-845.25,-1395.25,458.75,-1829.25,1058.75,0
634.5,-377.0,103.25,-911.75,-913.75,313.25,-1717.0,1099.75,0
356.75,-195.25,223.25,-288.75,-531.75,306.25,-1315.25,1043.75,0
558.25,-80.0,549.0,640.25,-181.75,-65.75,-673.0,884.25,0
1176.0,-160.5,638.0,874.0,-80.25,-881.75,531.25,836.25,0
2660.75,-221.0,635.0,818.0,-49.0,-1267.25,736.25,699.0,0
2499.5,-282.75,550.25,721.75,136.75,-1126.0,228.0,806.0,0
723.0,-290.5,792.25,577.25,517.25,-719.5,188.0,728.75,0
274.25,-78.25,618.5,606.75,891.75,-342.75,472.25,748.75,0
-832.25,-65.25,225.25,696.25,1299.25,-658.75,414.75,776.75,0
-2330.5,-150.0,159.5,587.25,1496.25,-885.5,514.0,653.25,0
-2873.0,-136.75,418.0,380.5,1508.0,-588.0,957.0,570.0,0
-2559.5,7.5,510.75,40.0,1784.0,-33.0,1173.75,503.25,0
-2044.25,288.0,422.25,-131.75,1982.5,446.0,1437.25,462.25,0
-228.5,390.25,461.25,-507.25,2036.5,747.25,1861.5,310.25,0
1160.0,491.0,644.25,-1000.0,2015.5,1044.0,2263.75,130.5,0
610.5,385.25,608.75,-1362.75,2356.5,1437.5,2178.75,-17.75,0
155.0,258.25,-45.0,-1264.75,2406.75,1479.0,1412.25,-206.25,0
1021.0,353.25,-37.5,-1283.5,2196.75,1285.25,813.75,-474.0,0
1043.25,364.25,913.25,-1226.0,2287.0,1394.75,728.0,-522.5,0
1512.0,417.75,1337.5,-1097.75,2344.25,1103.25,823.25,-456.25,0
741.25,454.75,980.0,-1028.75,747.0,1310.25,818.0,-374.25,0
-308.0,415.5,236.0,-595.5,174.25,1598.75,768.75,-364.5,0
-2005.5,377.75,595.25,-244.75,132.25,1536.5,813.5,-454.0,0
-1991.75,397.75,1299.75,-53.75,32.75,1574.75,808.75,-508.5,0
-836.5,382.5,714.25,34.5,-99.5,1284.25,672.0,-672.75,0
-131.25,337.5,-115.5,-118.75,-343.25,534.75,629.0,-810.0,0
1293.75,282.75,-767.75,-432.25,-403.0,-283.0,613.5,-891.5,0
1602.75,279.75,499.75,-910.5,-342.25,-316.75,576.0,-1052.0,0
1098.0,222.25,1123.25,-825.5,-107.0,226.75,492.75,-1199.75,0
728.25,92.25,1479.75,-780.5,-218.75,210.0,508.5,-1120.25,0
566.5,101.75,1267.0,-820.0,-404.75,432.5,480.5,-948.0,0
18.25,38.25,-522.5,-880.25,-319.75,1021.25,432.75,-822.0,0
-65.75,77.0,-822.5,-743.25,-428.25,1051.25,478.75,-713.5,0
-244.5,41.0,-1143.5,383.0,-356.25,868.75,576.25,-589.25,0
-446.75,-44.25,-1254.75,1122.25,-212.25,635.5,930.5,-422.5,0
-85.75,-84.5,-1623.0,1057.0,296.75,855.75,1297.5,-342.5,0
74.5,-74.5,-1819.5,1026.25,1214.75,825.5,1282.5,-311.0,0
73.5,-89.0,-1905.5,1035.75,1386.5,506.75,1125.75,-147.5,0
-263.5,-247.0,-1719.0,1132.5,1630.5,390.75,1020.25,-18.5,0
-293.25,-222.75,-571.0,1134.75,1497.5,236.25,1128.25,130.0,0
-273.0,-215.25,934.75,1130.0,1639.5,458.5,1547.75,269.25,0
-518.0,-214.0,1286.0,1068.0,1747.5,385.5,2024.25,352.0,0
-393.25,-163.5,1930.25,978.25,1520.5,258.75,2180.75,400.75,0
-263.0,-31.0,2070.0,1084.25,1256.75,306.5,1973.25,388.0,0
-155.75,-70.0,2065.5,1304.75,1561.75,63.25,1518.25,358.25,0
61.5,-196.5,2044.5,1199.25,1594.0,-361.5,1112.25,320.0,0
180.0,-312.5,1266.25,1186.25,1684.0,-792.25,723.5,280.75,0
59.25,-495.0,780.5,1408.5,1129.75,-814.25,515.5,172.75,0
-276.75,-410.25,491.0,1357.75,-127.5,-263.25,439.0,78.25,0
-250.5,-430.5,745.0,1408.25,-163.5,138.5,318.25,42.75,0
191.5,-455.75,287.0,1438.25,-158.5,146.5,141.5,15.0,0
620.25,-440.0,-572.0,1106.5,2.25,232.0,-129.5,-38.25,0
1013.25,-400.25,-746.0,503.5,-235.75,199.75,-488.25,-107.75,0
966.25,-355.75,-912.25,-35.5,-394.0,217.5,-700.0,-137.0,0
432.0,-448.0,-1021.5,-414.25,-394.5,188.75,-813.0,-166.25,0
-44.25,-422.25,-987.5,-707.75,-641.5,120.0,-873.5,-199.5,0
-472.0,-373.5,-1062.75,-739.25,-1435.25,245.0,-939.25,-160.5,0
-656.0,-314.0,-1103.75,-773.0,-2396.75,247.25,-1078.75,26.25,0
-518.5,-301.75,-926.75,-777.75,-2701.75,189.75,-1118.75,219.75,0
-433.0,-280.75,-1040.75,-863.25,-3138.25,301.5,-1197.25,217.25,0
-623.0,-261.75,-1116.0,-870.75,-2964.5,726.25,-1269.25,194.75,0
-747.25,-280.0,219.25,-869.75,-2537.25,938.0,-1151.25,179.0,0
-891.5,-292.25,1003.0,-887.25,-2175.25,609.0,-1297.5,113.25,0
-925.75,-283.5,829.25,-862.0,-2122.25,195.0,-1528.0,144.25,0
-807.0,-227.75,589.75,-895.75,-2211.75,-195.25,-1420.0,111.25,0
-826.5,-174.75,477.25,-895.25,-2230.75,-490.75,-1267.25,-75.0,0
-758.75,-129.0,357.25,-877.5,-2194.5,-437.25,-1099.0,-361.0,0
-697.75,-117.75,423.25,-836.0,-2122.5,-392.25,-967.75,-393.0,0
-609.25,-81.5,551.5,-863.75,-2027.0,-459.0,-801.0,-133.75,0
-504.75,-64.25,787.75,-826.25,-1785.5,-205.5,-295.75,254.5,0
-371.0,-49.5,878.5,-781.5,-1890.5,-126.0,226.75,338.75,0
-279.5,-30.25,358.0,-823.5,-1741.5,-51.5,-6.5,-97.5,0
-254.75,-15.75,-987.5,-886.75,-1669.75,49.0,63.0,-634.5,0
-240.75,36.75,-760.75,-983.5,-1834.25,94.0,35.75,-1214.25,0
-330.0,59.5,-587.25,-981.5,-2290.75,91.0,-413.75,-1209.75,0
-286.25,50.5,1403.25,-979.0,-2682.5,-25.0,-594.5,-1195.75,0
-216.25,39.75,1277.0,-1021.5,-2299.75,-221.75,-376.5,-1144.75,0
-142.75,53.5,817.75,-1030.75,-1522.75,-525.25,111.75,-781.75,0
-107.5,130.5,40.25,-953.25,-1084.25,-680.75,356.0,-68.75,0
-72.25,191.5,-809.0,-881.25,-785.75,-836.0,120.75,532.5,0
-12.5,207.5,-1093.5,-862.0,-383.5,-951.25,160.5,518.0,0
-51.0,227.75,-1042.25,-858.0,-144.75,-552.5,-101.25,359.0,0
-52.0,258.5,-970.75,-741.0,-93.75,10.5,-874.25,378.0,0
-74.0,348.75,906.75,-496.0,3.75,30.25,-1040.0,384.0,0
2.25,405.0,967.75,-302.0,232.25,-600.25,-1019.25,675.5,0
87.75,410.0,983.25,-164.25,394.25,-1340.75,-896.5,925.0,0
65.25,407.0,1171.5,-34.5,541.25,-1229.75,-433.5,960.0,0
58.5,394.0,-179.5,102.5,359.75,-535.0,636.0,977.0,0
13.0,425.75,-680.0,255.25,35.75,3.5,1398.75,986.75,0
-22.5,429.75,-673.0,300.0,-239.25,1.75,1238.75,1018.5,0
11.75,407.5,-759.0,270.0,-365.75,8.5,1184.0,1064.5,0
16.25,381.25,-860.75,250.75,-621.5,7.75,1171.25,1263.0,0
50.5,378.75,-921.75,258.0,-341.5,433.75,-318.25,1478.0,0
136.5,353.0,-387.0,105.25,285.5,1879.0,-803.75,1555.25,0
229.0,217.25,469.5,-37.0,286.0,2071.75,-593.5,1489.0,0
360.5,136.25,893.75,43.0,340.5,1896.25,-277.25,1100.75,0
509.5,150.5,1089.5,160.5,394.25,1672.5,1.0,768.75,0
657.0,213.5,1047.5,288.5,356.5,1447.5,-101.25,803.0,0
580.25,198.75,514.25,370.75,351.75,389.25,-1373.75,748.25,0
472.75,119.25,-108.75,365.0,390.75,-667.75,-2067.75,315.75,0
478.75,72.0,-664.25,430.75,471.25,-1075.0,-2154.75,-377.5,0
426.5,28.25,-414.75,491.0,486.5,-1129.25,-2190.5,-705.75,0
405.0,46.0,84.75,504.75,492.25,-1276.0,-716.25,-834.25,0
440.5,67.75,345.5,538.0,491.25,-1365.5,-104.75,-995.25,0
546.0,61.25,555.25,560.25,480.5,-1272.5,-138.5,-1121.25,0
597.0,63.5,645.75,526.75,539.75,-959.5,-121.5,-1127.75,0
491.0,41.0,665.0,552.0,593.0,-915.75,-493.25,-1189.75,0
359.5,5.0,864.25,704.25,634.25,-851.5,-919.5,-1182.0,0
330.75,-7.0,1025.0,915.0,599.0,-762.25,-913.5,-1058.0,0
547.5,-28.5,989.25,951.5,609.25,-493.75,-711.0,-668.75,0
814.5,-98.5,574.75,919.5,817.0,-91.25,-698.25,-857.75,0
863.75,-104.75,515.25,986.25,962.25,104.75,-699.75,-880.5,0
785.25,1.25,263.75,799.25,1103.5,193.5,-984.5,-802.5,0
390.0,43.25,-124.5,489.5,1421.0,134.25,-1152.75,-815.25,0
-250.5,21.5,46.5,630.5,1778.5,-165.5,-1367.25,-659.0,0
-544.75,8.0,257.0,813.0,1898.25,-694.0,-1459.75,-598.0,0
-604.75,-7.25,42.25,473.5,1878.5,-741.75,-1588.5,-376.0,0
-662.0,-60.5,-401.25,279.0,1610.75,-308.0,-1667.5,-237.5,0
-529.25,-152.75,-358.75,426.5,1357.5,64.25,-1465.25,-16.0,0
39.0,-120.5,-380.5,238.5,1279.75,260.25,-1367.0,176.25,0
330.5,-75.75,-456.5,14.25,1121.5,323.5,-1358.75,363.25,0
486.75,-78.5,-826.5,-220.5,888.5,245.0,-1437.0,554.5,0
637.0,-27.5,-1338.0,-470.5,633.5,96.75,-1003.0,672.5,0
688.0,32.75,-945.75,-375.75,472.25,260.5,-586.25,770.25,0
765.0,10.75,199.75,-208.0,671.25,381.0,-404.0,714.75,0
879.75,-80.5,1071.0,-242.5,795.25,457.25,-7.0,613.25,0
950.5,-86.25,863.25,-500.25,780.25,504.5,479.0,417.0,0
608.0,-134.0,347.0,-581.25,800.25,324.25,966.0,214.0,0
232.0,-233.75,-129.75,-521.75,701.25,640.0,1261.75,59.0,0
-176.75,-213.0,-696.25,-491.5,469.5,950.75,1134.25,-198.5,0
-450.0,-120.0,-919.25,-436.5,343.5,852.5,1028.25,27.0,0
-569.5,-39.75,-501.0,-402.75,453.5,549.0,1093.75,588.5,0
-673.5,10.0,-361.5,-381.75,482.75,123.75,1092.75,546.0,0
-420.25,60.25,-540.5,-275.25,138.75,-88.75,1149.75,556.5,0
-276.5,69.0,-275.0,-67.0,-389.0,-552.25,1099.5,729.25,0
-110.5,204.5,1072.25,-313.25,-1042.75,-864.75,1047.0,863.0,0
3.5,291.75,1396.5,-546.5,-1155.0,-964.5,1142.25,906.0,0
174.0,222.75,386.0,-603.5,-1225.75,-770.5,1233.25,777.75,0
301.25,198.75,-566.0,-946.5,-1332.0,-553.5,1280.25,801.0,0
272.75,173.25,-882.5,-1049.5,-1413.25,-459.5,1302.75,802.5,0
257.5,143.75,-1132.75,-744.25,-867.0,-311.75,1325.75,935.5,0
180.25,150.75,-1022.5,-608.0,494.75,323.25,1304.75,1092.0,0
236.25,40.0,-1105.75,-469.25,1003.5,1303.25,1352.0,1232.5,0
158.75,68.0,-128.5,-297.0,251.75,1388.0,1415.25,1321.0,0
289.75,595.75,1039.0,-395.75,-248.25,688.5,1421.5,1382.25,0
290.25,556.25,1152.75,-292.25,9.25,114.5,919.75,1342.5,0
76.75,166.0,1167.25,-106.0,733.0,494.0,340.75,1328.75,0
-390.25,-633.75,-195.75,512.5,1439.5,1402.75,118.5,1535.5,0
-987.0,-911.25,-1121.75,488.5,1463.75,1451.5,362.75,1721.5,0
-852.75,-719.5,-1220.5,205.5,1248.25,1058.5,615.75,1790.75,0
-698.75,-715.0,-798.0,610.25,1414.0,904.0,885.25,1622.75,0
-721.5,-604.75,-472.25,785.75,1048.5,573.0,1051.75,1410.75,0
-675.25,-472.25,346.25,622.0,1177.75,414.25,1015.25,1110.25,0
-733.75,-500.75,786.75,483.75,-967.25,383.5,919.75,853.25,0
-481.0,-219.5,885.5,252.25,-1621.5,213.5,989.5,612.75,0
-352.5,-240.75,706.75,451.75,-1604.0,-206.75,983.25,443.25,0
-249.0,-96.0,494.75,318.0,-1344.0,-619.25,953.5,280.5,0
-174.75,-150.75,663.25,346.5,-1211.75,-317.25,944.25,72.0,0
-138.5,-66.0,992.25,124.75,-1328.25,261.5,926.5,-102.0,0
-169.5,-21.0,1375.25,46.0,-1134.75,393.0,899.5,-308.75,0
-306.5,91.25,1642.75,-106.0,-1363.0,90.5,948.0,-478.5,0
-471.5,127.0,1124.25,-126.0,-955.0,-180.25,925.25,-631.5,0
-853.25,-16.25,334.25,51.75,-945.25,-55.75,888.25,-796.0,0
-910.25,59.5,-596.5,41.0,-1165.5,538.5,966.5,-892.25,0
-789.5,-3.75,-1790.5,182.75,-986.0,926.0,1061.0,-864.5,0
-711.25,6.75,-2215.0,164.25,-987.75,927.25,1109.5,-862.5,0
-516.5,-14.25,-1720.25,247.0,-850.75,975.75,1110.0,-926.0,0
-416.75,-151.75,-371.75,381.5,-917.25,511.0,1089.0,-1018.0,0
-309.5,-162.75,-4.75,280.0,-1255.5,81.5,996.75,-1047.25,0
-300.0,-151.25,72.25,133.5,-1303.0,-153.0,866.5,-1147.0,0
-373.25,-172.25,435.75,113.0,-1487.5,-248.75,479.5,-1122.5,0
-514.75,-149.75,420.0,103.0,-1373.0,-269.5,-18.75,-905.25,0
-649.0,-173.75,671.25,131.0,-861.75,-419.25,-274.25,-726.25,0
-350.25,-61.25,543.75,27.5,-468.25,-709.75,-65.5,-626.0,0
174.75,-18.5,833.25,-94.0,42.5,-884.25,533.25,-565.0,0
579.0,-71.75,646.75,-126.75,518.25,-878.0,971.25,-545.75,0
1208.5,0.75,1012.75,-130.0,620.0,-1077.75,664.5,-541.5,0
1540.25,10.25,841.0,-31.0,781.25,-1091.5,164.0,-592.0,0
1631.75,17.0,145.75,-42.25,802.5,-861.75,-476.5,-591.0,0
1509.0,74.25,-1012.25,-47.5,761.75,-632.75,-654.5,-574.25,0
1246.25,125.75,-1495.5,-112.0,723.75,-410.0,-435.0,-599.25,0
816.5,212.0,-1436.5,-238.75,617.25,-401.5,-495.75,-696.5,0
304.25,260.0,-948.25,-323.0,596.0,-409.0,-712.0,-903.75,0
-206.5,301.25,-12.5,-305.25,490.25,-427.0,-951.0,-1174.0,0
-392.75,432.5,47.25,-328.0,516.5,-486.5,-1055.75,-992.25,0
-213.0,531.5,-139.25,-413.0,889.5,-486.5,-1248.5,-843.0,0
-97.25,571.25,-410.75,-481.5,1011.75,-461.75,-1385.5,-719.25,0
206.0,659.25,-943.0,-619.0,491.5,-447.25,-1495.0,-627.75,0
375.25,730.25,-912.25,-518.25,503.25,-377.25,-1325.25,-566.0,0
-21.75,697.0,-761.75,-450.5,956.75,-372.25,-957.75,-578.75,0
-499.75,667.75,-852.75,-404.25,830.0,-633.5,-810.75,-597.0,0
-532.75,634.75,-681.75,-339.75,890.25,-696.0,-863.75,-626.0,0
29.25,564.0,-170.75,-268.5,617.75,-572.0,-656.75,-666.0,0
1046.25,447.0,833.0,-183.25,510.25,-511.0,-103.25,-707.75,0
1414.25,355.0,939.75,-155.75,863.75,-405.5,346.5,-864.0,0
1494.0,350.0,1070.0,-78.75,1059.25,-203.25,738.5,-1041.75,0
1265.5,288.0,1113.25,-9.75,1063.5,-134.5,732.0,-1222.75,0
702.0,226.5,1221.25,33.5,977.0,4.75,95.0,-1412.0,0
-148.0,68.75,1334.0,232.75,984.5,180.5,-400.0,-1576.5,0
-912.5,-480.5,6.0,620.5,1060.0,598.75,-557.25,-1644.25,0
-1790.25,-937.0,-806.25,1243.75,909.0,1063.25,-298.5,-1624.25,0
-1862.0,-859.75,-819.75,1237.0,721.25,988.5,-148.5,-1603.0,0
-1118.75,-684.25,-927.75,1042.0,430.75,774.0,135.75,-1417.5,0
-307.5,-652.75,-1232.75,1052.25,177.0,660.0,776.25,-1170.0,0
-79.0,-471.25,-1652.75,901.5,108.0,596.0,749.25,-1040.5,0
38.75,-490.0,-1511.0,760.75,23.0,563.5,760.25,-1012.25,0
-84.5,-425.75,420.25,647.0,27.75,484.0,691.75,-808.25,0
-723.75,-338.25,537.25,377.5,-172.0,401.0,606.25,-627.0,0
-822.0,-123.5,826.5,-23.5,-653.75,284.75,683.25,-452.75,0
-722.5,98.75,681.25,-297.75,-611.0,241.25,828.25,-195.75,0
-992.75,179.25,-1068.5,-407.5,-612.75,292.0,984.75,36.0,0
-975.25,272.75,-2205.25,-528.5,-165.25,546.0,829.0,228.75,0
-422.5,78.5,-2249.0,-335.5,363.5,734.75,675.25,377.5,0
-81.75,59.25,-1839.25,-385.25,200.5,705.5,658.0,491.75,0
110.5,230.25,-979.25,-574.5,-342.75,531.25,830.0,480.5,0
439.25,390.25,-9.5,-639.5,-861.75,433.0,1066.25,490.25,0
219.5,596.25,412.0,-678.0,-1201.0,252.5,1105.75,564.0,0
-311.0,398.25,1606.75,-253.75,-412.0,-582.25,1019.75,803.25,0
-706.75,-121.0,1821.5,81.25,-473.0,-595.75,498.75,904.0,0
5.5,197.75,1825.75,-222.5,-1322.0,-741.5,14.25,918.0,0
579.5,175.75,1975.25,-151.0,-869.0,-709.75,102.5,1030.75,0
818.25,19.75,2087.5,-202.75,-1202.0,-891.5,-171.5,981.75,0
933.0,428.5,1786.75,-496.5,-1755.0,-294.75,-461.0,937.75,0
1246.0,532.25,822.0,-508.25,-1642.5,17.75,-464.0,952.0,0
1889.75,548.75,729.0,-466.75,-1422.0,-370.0,-549.0,1152.25,0
1648.25,508.75,1130.5,-335.75,-1483.75,-120.0,209.5,1391.75,0
1324.0,494.25,431.5,-312.0,-1193.0,509.0,860.25,1498.75,0
611.5,218.0,-777.0,-314.0,-818.75,398.75,1108.5,1551.25,0
-166.75,155.5,-1100.5,-274.75,-1249.25,319.25,1003.0,1413.5,0
-956.5,106.5,-1306.25,-51.5,-1608.5,-211.5,765.75,1294.25,0
-1299.5,148.0,-1400.25,36.0,-1742.0,-257.5,459.75,1313.0,0
-962.75,13.0,-1576.25,91.5,-1379.25,91.0,-327.75,1339.25,0
-474.25,-127.75,-1868.5,216.0,-1359.25,810.75,-751.75,1302.75,0
94.5,-122.0,-437.0,334.0,-1102.5,1332.5,-1210.25,1321.25,0
-454.0,-394.5,1404.5,412.0,-434.0,1437.25,-1323.75,1580.5,0
-1452.0,-990.25,1726.5,695.5,378.75,1759.5,-1218.25,1823.75,0
-1088.5,-1057.0,1115.0,753.0,776.75,619.25,-838.5,1754.25,0
-619.75,-841.5,1191.25,591.75,977.25,-166.5,-785.5,1604.25,0
-156.0,-884.0,963.75,596.75,1351.0,-290.0,-1111.5,1647.75,0
1448.75,-787.5,-127.75,475.0,1542.0,-665.25,-1222.0,1494.25,0
853.0,-659.5,-1167.0,247.25,1643.5,-653.0,-1067.5,1486.75,0
-117.5,-595.25,-1326.0,226.75,1317.5,-764.5,-665.5,1377.25,0
-120.25,-407.75,69.5,109.25,1248.5,-893.0,-729.5,1339.0,0
-356.75,-407.25,9.25,153.5,1052.25,485.75,-765.25,1105.5,0
-672.0,-226.75,-216.0,95.5,871.5,644.0,-887.25,864.5,0
-865.75,-256.0,-402.0,33.25,839.75,1093.0,-949.75,660.25,0
-873.5,-206.0,-2274.0,-35.75,726.0,961.0,-1000.75,485.5,0
-984.25,-208.0,-2062.75,-92.5,659.75,858.5,-1150.5,385.75,0
-349.0,-52.25,-1960.25,-82.5,543.75,898.25,-1311.5,208.5,0
-158.25,47.25,-1873.25,-40.25,603.0,918.25,-1057.5,102.0,0
-171.5,49.5,-1784.25,-3.75,595.5,425.75,-962.25,-106.75,0
280.5,142.5,-1058.25,-20.25,763.25,18.25,-979.25,-194.5,0
307.5,174.25,-492.0,-77.0,1002.5,-293.5,-835.25,-314.75,0
737.0,89.5,-67.5,-239.75,1066.5,-891.25,-662.25,-424.25,0
853.5,-30.0,249.0,-296.0,1194.25,-929.25,-645.75,-480.0,0
745.5,28.5,502.0,-243.0,1564.75,-675.0,-796.0,-530.0,0
575.25,49.75,552.25,-225.75,1592.75,-593.0,-843.0,-455.5,0
1008.25,214.5,1055.25,-323.0,1581.0,-463.25,-762.5,-442.75,0
1044.5,275.25,1360.5,-266.75,1188.0,-277.5,-613.0,-486.75,0
1023.5,157.0,1228.75,-147.0,451.75,-417.75,-476.75,-487.5,0
804.0,129.25,1080.25,-21.0,61.25,-480.25,-381.5,-413.75,0
261.5,144.0,467.5,-38.75,-323.75,-188.0,-480.0,-326.5,0
-103.5,271.75,-269.0,-218.75,-420.5,63.25,-725.25,-294.25,0
-704.25,344.25,-1160.0,-208.25,-412.5,151.25,-774.5,-251.25,0
-1215.0,219.0,-1644.25,-223.75,-381.0,95.75,-557.5,-156.25,0
-1033.75,201.0,-1627.75,-173.75,-116.75,-19.25,-447.25,-175.25,0
-964.0,241.5,-1641.0,-115.75,345.75,-193.25,-429.5,-79.5,0
-987.5,199.0,-1478.75,-100.5,820.25,-59.75,-433.25,150.25,0
-582.25,167.0,-1500.5,-99.75,1076.0,56.25,-393.75,316.25,0
-197.0,101.75,-849.75,-110.25,947.75,99.5,-49.25,516.25,0
126.75,92.5,683.75,-90.25,931.5,288.5,129.75,677.25,0
432.25,74.0,1453.25,-101.25,831.25,335.0,11.0,711.75,0
347.25,84.75,2125.5,-73.0,627.25,308.0,15.5,693.25,0
-177.75,68.0,2422.75,-83.5,393.5,354.5,-137.0,705.0,0
-673.75,7.25,2692.25,-69.5,150.0,419.5,-595.75,615.0,0
-991.25,-14.0,2414.25,-42.0,224.5,438.25,-871.5,619.0,0
-1054.0,-53.0,1760.75,-29.75,694.25,531.25,-666.25,726.0,0
-483.75,-10.75,-708.0,-53.75,1044.5,580.25,-354.75,721.5,0
220.75,25.0,-1713.25,-37.25,1078.25,550.75,-489.0,881.25,0
467.25,19.25,-1950.5,32.5,1300.25,482.5,-699.5,1038.25,0
531.5,-10.25,-2209.0,67.5,1329.25,342.5,-670.0,941.25,0
588.5,-35.25,-1920.25,65.0,754.75,79.0,-658.75,583.75,0
522.5,-8.5,-1188.75,8.75,-388.25,-121.25,-715.0,325.5,0
436.0,22.75,-323.25,48.75,-974.5,-121.0,-541.25,553.5,0
468.5,43.25,457.75,66.75,-1636.25,-110.5,-410.25,645.75,0
521.25,41.25,641.75,10.75,-2493.25,-169.5,-151.25,667.25,0
376.25,30.25,366.0,53.25,-2425.75,-221.25,173.5,755.25,0
145.5,18.5,395.25,148.25,-1415.0,-187.0,216.75,753.5,0
68.25,11.75,215.0,104.5,-501.5,-26.0,488.75,709.5,0
-280.25,43.5,114.0,-14.5,-295.25,54.5,850.25,450.5,0
-419.75,53.0,254.25,-58.0,-427.75,38.5,1215.75,301.0,0
-145.5,59.25,507.0,-57.75,-1076.25,41.75,1400.0,132.75,0
33.0,92.75,843.0,-59.0,-1181.75,34.5,1302.25,-109.25,0
215.75,85.0,533.0,-103.0,-574.25,105.0,941.5,-230.5,0
220.25,44.75,372.75,-84.5,-933.5,128.0,786.75,-371.5,0
122.75,-2.75,41.5,-77.25,-654.75,113.0,740.5,-522.75,0
12.75,-9.25,-432.0,-79.25,492.0,68.0,693.0,-631.5,0
-9.75,-31.0,-318.75,-24.75,1342.25,43.25,795.25,-641.75,0
87.25,-75.75,431.5,-7.0,1634.25,68.25,957.25,-684.75,0
97.0,-86.25,1143.0,31.5,1486.25,89.5,1213.25,-676.5,0
76.75,-137.25,1092.75,46.75,359.5,149.75,1311.75,-613.5,0
85.0,-193.0,836.25,33.0,-124.0,164.25,1247.0,-618.0,0
80.25,-202.0,457.25,14.5,-137.25,193.75,1229.25,-559.25,0
57.25,-123.0,-777.75,-27.0,-138.5,254.75,1083.0,-390.25,0
26.75,4.5,-1055.25,-51.5,-4.0,286.0,1051.75,-197.75,0
13.25,133.25,-1025.75,-33.0,483.0,170.75,990.25,-81.5,0
-63.0,126.0,-910.5,18.0,1624.5,75.75,815.5,-95.75,0
-299.5,-135.5,-832.25,102.75,2125.5,76.0,606.25,-254.25,0
-391.25,-232.5,87.5,99.75,1988.5,105.75,158.75,-493.25,0
-100.25,-190.75,249.75,-7.75,1078.75,174.5,-284.5,-490.75,0
167.75,-183.0,337.5,-31.25,1453.75,171.75,-423.75,-359.25,0
336.0,-252.0,557.0,-56.25,1565.5,156.0,-493.5,-362.75,0
402.25,-451.25,565.0,-69.0,1034.0,109.0,-641.25,-126.25,0
252.25,-499.0,886.25,-44.25,353.0,133.5,-864.75,148.0,0
-61.5,-519.0,967.0,17.5,-267.75,217.0,-847.5,-51.5,0
-349.5,-358.5,952.5,28.25,-59.25,181.5,-686.75,-318.5,0
-376.5,4.5,479.5,-69.5,124.25,54.0,-729.75,-430.5,0
-564.75,351.25,95.75,-86.5,678.75,-90.0,-873.75,-599.5,0
-807.75,552.25,176.5,-50.25,1460.75,-376.75,-975.5,-739.75,0
-656.5,629.25,-176.0,-66.75,1369.5,-652.0,-969.25,-584.0,0
0.5,850.5,-486.0,-94.25,1599.0,-546.0,-954.0,-381.75,0
277.25,1000.75,-188.0,-75.5,2017.0,-425.25,-1042.5,-287.25,0
-56.75,995.75,602.25,-66.25,1590.25,-392.75,-1016.5,-175.0,0
-108.5,768.75,1319.5,-63.75,538.5,-243.75,-1011.75,73.0,0
205.5,-100.75,1120.25,-17.5,-936.25,-137.25,-1009.25,331.5,0
499.5,-475.25,586.0,54.0,-1035.25,-109.75,-1010.0,79.75,0
426.25,-658.5,222.0,61.75,-712.0,-217.75,-860.5,-97.5,0
-0.5,-829.75,-484.0,41.0,-483.75,-251.75,-1001.75,244.0,0
-286.0,-642.75,-1360.0,10.75,-507.25,-79.5,-1099.5,383.25,0
-54.25,-610.5,-1814.5,-13.75,-849.75,86.75,-1047.25,224.25,0
223.5,-488.5,-1575.75,46.5,-1481.5,128.0,-983.75,-25.5,0
114.25,-158.75,-1066.75,78.5,-1301.0,76.75,-1038.5,82.5,0
15.25,203.5,-426.25,72.75,-908.75,32.0,-1038.25,649.25,0
102.0,124.25,-103.5,52.25,492.5,-66.75,-1039.75,671.5,0
344.75,24.25,-34.25,92.5,981.25,-189.25,-1063.5,257.75,0
461.75,228.25,333.25,88.0,1020.75,-188.75,-1085.25,-161.0,0
319.5,232.25,353.5,29.25,300.0,-5.0,-1100.5,-742.0,0
373.0,30.0,251.25,11.75,-981.0,168.5,-1003.5,-745.75,0
401.25,-155.5,-180.5,-20.5,-982.0,375.5,-911.0,-377.25,0
264.0,-220.25,-662.0,-10.25,-982.25,564.75,-865.0,-234.0,0
127.75,-283.5,-813.0,-25.25,-1781.0,540.0,-377.5,-264.25,0
-64.25,-76.0,-654.5,-31.0,-2358.5,516.5,145.25,-272.0,0
-158.25,40.75,68.5,-62.5,-1302.5,595.25,794.0,-31.0,0
-154.5,61.0,777.25,-97.5,-418.5,457.0,950.25,-106.0,0
-34.5,158.75,970.25,-99.75,176.75,75.0,1049.25,-251.5,0
120.75,293.0,660.0,-151.75,905.5,-207.5,1082.5,-612.75,0
379.0,493.75,534.5,-174.0,1589.5,-232.5,1051.25,-1074.25,0
429.0,351.75,-107.5,-243.5,1976.0,-358.25,943.5,-1144.75,0
294.0,290.0,-934.75,-265.5,894.75,-460.0,877.75,-1058.75,0
263.5,494.0,-718.75,-217.75,477.75,-475.25,877.5,-933.5,0
220.25,364.0,151.75,-80.75,355.75,-578.25,881.25,-1110.25,0
201.75,22.75,864.25,116.0,375.0,-550.25,797.25,-1136.5,0
104.0,-46.75,986.5,219.5,982.0,-508.25,613.25,-938.0,0
8.25,-21.25,907.5,220.0,1899.0,-447.0,549.25,-943.5,0
-131.5,33.0,813.5,180.75,2958.0,-455.75,651.0,-929.0,0
-100.75,0.0,590.5,133.5,2961.5,-502.5,966.5,-942.5,0
239.0,34.25,974.75,-287.75,2579.25,-784.25,1605.75,-867.5,0
733.0,300.25,1400.75,-646.0,2187.0,-1045.0,1850.5,-1101.75,0
549.0,791.0,800.0,-654.75,1826.0,-1020.0,1841.75,-1565.75,0
266.75,623.5,-256.5,-567.25,466.5,-917.25,1473.75,-1498.5,0
308.5,359.75,-725.5,-527.5,-431.5,-676.75,1012.0,-1273.25,0
225.25,171.0,-946.0,-361.25,-1135.75,-331.0,900.75,-1287.0,0
63.25,-163.5,-988.0,-330.75,-1248.75,-345.75,781.5,-1442.0,0
-0.5,-131.5,-741.25,-148.25,-993.0,-207.75,645.25,-1904.25,0
-84.0,-112.25,-784.25,-69.5,1179.0,-136.5,623.5,-2090.25,0
-198.0,138.75,-387.25,41.0,1095.0,28.75,1019.5,-2051.5,0
-171.0,754.75,136.75,136.0,589.5,149.75,1058.75,-1940.5,0
-49.0,673.0,468.75,141.75,-492.75,264.5,1011.25,-1767.25,0
-143.5,498.5,1186.5,174.5,-534.5,390.25,963.5,-1706.75,0
53.5,365.75,557.0,145.0,320.0,489.5,923.0,-1705.75,0
186.25,215.0,-1687.5,232.5,752.0,581.75,922.75,-1598.5,0
109.75,-319.75,-2191.25,272.0,508.25,565.25,871.75,-1267.5,0
-21.25,-890.5,-1585.25,242.25,-189.0,621.25,787.0,-940.5,0
-70.0,-986.5,-1026.75,182.0,71.75,628.75,978.25,-664.0,0
-51.5,-948.0,-888.75,150.0,593.0,650.25,1034.0,-345.0,0
42.75,-682.75,-1433.5,187.5,225.5,609.25,911.5,-259.0,0
172.0,-121.0,-765.75,208.0,-545.0,504.25,913.0,112.75,0
128.75,326.75,898.25,208.75,-645.75,459.0,886.25,554.75,0
106.5,459.5,1329.0,197.75,-823.0,468.0,582.75,690.75,0
-85.5,536.0,1077.5,138.25,-395.0,626.5,-376.75,990.25,0
-141.0,564.25,1122.25,312.0,-442.5,789.75,-1713.25,712.25,0
-934.5,-146.0,1216.25,661.25,137.25,940.5,-2201.75,1056.5,0
-1749.0,-1074.0,869.25,646.5,587.5,822.25,-1689.5,1463.75,0
-1944.0,-1261.5,192.0,544.25,-865.5,545.25,-1517.5,1930.5,0
-1965.0,-1476.25,-305.75,536.75,-1450.75,497.5,-1459.25,2714.25,0
-1628.25,-1386.5,-1098.0,366.5,-720.5,315.25,-1314.0,2717.0,0
-1188.75,-1289.5,-1562.5,367.75,-399.75,250.5,-1308.75,2280.0,0
-1233.5,-1254.75,-1323.25,392.25,289.75,249.75,-1261.0,2065.25,0
-794.75,-1075.25,-894.5,454.0,759.0,181.75,-1203.0,1683.75,0
-544.0,-917.75,-334.5,353.5,131.0,112.0,-1016.75,1730.25,0
-65.5,-298.5,-71.0,181.5,-1074.75,26.5,-963.0,2131.5,0
175.0,332.5,63.5,38.75,-1260.0,38.75,-975.0,2389.75,0
470.25,875.5,786.25,-160.25,-1090.5,-18.75,-1033.75,2241.5,0
632.25,923.75,1046.5,-256.25,746.75,-56.5,-1013.75,1267.0,0
428.0,771.75,654.5,-367.5,1878.75,-167.25,-960.5,304.0,0
322.0,841.75,107.5,-500.25,1828.75,-231.25,-983.75,192.75,0
82.0,1092.75,-424.0,-529.25,1485.0,-261.0,-325.5,188.75,0
-2.0,1034.75,-652.25,-586.5,-32.0,-291.75,444.5,204.0,0
187.75,736.25,-239.5,-702.25,-637.25,-303.25,945.0,244.0,0
982.25,613.75,874.0,-588.0,-119.5,-367.25,1145.25,226.5,0
1681.5,478.5,1311.75,-650.5,244.5,-375.0,1141.25,156.5,0
1887.5,442.5,934.75,-748.5,314.0,-381.25,1173.75,142.25,0
1824.25,328.0,273.0,-857.0,-81.25,-408.5,1278.5,172.75,0
1115.5,383.0,-43.25,-832.25,-813.0,-529.75,1512.5,344.75,0
114.5,490.0,-549.25,-751.5,-1115.5,-623.5,1681.75,441.75,0
-675.75,196.5,-670.75,-646.0,-723.25,-346.5,1268.25,335.0,0
-1608.0,-647.75,-1158.0,128.25,-63.5,100.0,693.75,696.5,0
-2205.5,-1518.5,-767.0,628.0,-310.0,262.5,599.5,858.5,0
-1981.0,-1625.25,955.0,623.5,-650.75,183.0,625.25,958.5,0
-1705.75,-1286.5,1378.75,658.25,-353.5,136.75,655.75,1230.0,0
-1487.0,-790.75,1626.0,696.25,-92.75,114.0,834.5,1364.75,0
-523.0,16.75,1420.5,411.5,769.75,99.75,930.0,1438.75,0
-405.25,484.25,124.75,645.5,1537.75,129.75,936.0,1726.5,0
-550.25,585.0,-928.75,664.75,1728.25,136.75,867.25,2100.75,0
-697.5,573.0,-877.25,691.25,542.75,110.0,752.0,2262.0,0
-745.75,353.75,-544.75,686.0,-621.25,75.5,703.5,2091.5,0
-627.75,-175.75,-770.75,642.0,-1772.0,27.75,627.0,1666.75,0
-773.5,-536.0,-707.75,577.0,-2010.25,-16.0,813.75,723.0,0
-367.25,-794.25,-502.25,481.75,-1554.75,-32.25,1226.75,104.0,0
-431.5,-957.5,13.5,316.75,-1172.25,-85.0,1524.0,-293.0,0
-540.25,-801.0,103.75,-40.0,-116.0,-117.5,1647.25,-559.5,0
-670.75,-436.25,530.75,-504.0,1095.5,-127.25,1660.25,-711.75,0
-726.25,52.0,981.25,-1119.25,1812.5,-341.75,1887.75,-861.75,0
-470.5,853.0,1489.5,-1151.0,2228.75,-505.5,1899.25,-1068.75,0
-402.25,869.5,1603.25,-535.5,2843.0,167.5,853.25,-1712.75,0
-760.25,-286.5,1107.75,426.75,3979.0,940.0,383.75,-2085.0,0
-625.75,-366.5,1332.75,484.0,3784.25,564.5,507.0,-1995.0,0
-289.75,-161.25,1750.75,431.0,2970.25,261.25,678.75,-2493.5,0
118.25,-364.5,995.5,607.0,2680.25,328.5,792.5,-2753.75,0
324.0,-320.5,250.75,347.5,1946.0,16.75,1103.25,-2827.25,0
479.75,-389.25,-96.5,238.5,1728.25,10.5,1000.0,-2825.5,0
436.25,-411.75,-511.0,80.0,792.25,-108.0,876.0,-2734.0,0
663.0,-157.0,-1700.25,-51.0,531.5,-112.0,403.0,-2670.25,0
591.0,-61.5,-2589.75,27.25,456.0,-142.25,99.75,-2091.25,0
295.25,151.75,-1903.25,-86.75,486.0,-211.5,-194.75,-1652.0,0
-388.5,111.75,-264.75,-125.5,477.75,-216.5,-540.5,-1166.75,0
-713.0,124.5,1320.75,-216.5,581.5,-259.25,-1081.25,-699.75,0
-553.0,40.25,816.0,-36.75,883.0,-232.25,-1386.5,-145.5,0
-67.0,-12.0,-614.0,-50.25,926.75,-287.0,-1508.5,255.75,0
1297.25,49.25,-1178.0,-2.5,895.0,-243.5,-1191.0,383.25,0
1504.25,231.25,-1660.5,105.5,552.75,-260.0,-737.0,464.0,0
1881.5,391.75,-1642.5,126.25,133.0,-168.5,-611.0,418.75,0
2018.0,448.0,-1085.5,103.5,-325.5,-92.75,-668.25,341.25,0
2048.5,484.5,-358.0,78.25,-196.0,32.25,-899.75,249.5,0
1930.5,399.0,-371.25,58.5,-308.0,194.5,-1006.0,174.5,0
1430.25,381.5,-562.25,-127.25,-459.25,281.25,-935.75,171.0,0
1112.75,395.25,-320.0,-209.5,-329.75,380.0,-813.75,295.0,0
600.75,423.0,-123.0,-190.75,-567.25,414.0,-769.75,495.75,0
374.25,415.5,-184.25,-157.5,-694.25,515.0,-736.75,666.5,0
424.25,380.75,61.5,-160.25,-338.5,703.0,-762.0,606.0,0
285.0,356.75,628.75,-213.75,229.0,809.0,-835.0,585.75,0
-88.25,276.75,641.75,-287.75,667.25,850.75,-875.5,752.0,0
60.0,205.75,837.75,-295.25,351.25,954.5,-911.25,866.5,0
152.0,210.5,940.0,-292.75,-272.25,1106.5,-952.75,804.5,0
493.5,203.75,1069.5,-275.25,-642.75,1170.75,-996.0,602.25,0
1480.25,181.25,675.75,-213.5,-1322.5,1124.75,-989.5,449.25,0
1690.0,148.75,500.25,-105.0,-916.5,1010.75,-1010.5,326.75,0
1133.25,80.25,1206.5,55.25,-602.25,872.75,-1027.75,192.75,0
481.25,30.25,1397.25,156.5,-934.5,698.25,-1009.25,60.5,0
-72.75,55.75,1094.25,65.5,-1330.25,415.25,-951.75,-41.0,0
-511.5,97.25,329.0,-20.0,-987.0,423.0,-694.0,-49.5,0
-430.0,48.25,-20.0,-90.0,-361.75,728.25,-355.25,-61.25,0
-278.75,39.5,-701.75,-188.75,-400.5,1010.75,-14.5,-178.25,0
-747.5,149.5,-1579.5,-375.75,-613.75,1289.75,323.25,-204.0,0
-1147.5,367.25,-1518.5,-647.0,-995.5,1305.0,612.0,-172.25,0
-1100.25,668.75,-722.5,-688.25,-1055.5,996.5,1071.25,82.75,0
-1160.5,843.0,-353.0,-836.75,-877.25,905.0,1237.5,374.75,0
-1058.25,671.75,-737.0,-919.25,-564.0,1299.0,674.5,-221.25,0
-764.75,-215.0,-1747.5,-192.25,331.0,2143.0,-52.25,-885.75,0
-366.75,-818.25,-1578.75,113.5,308.5,1936.5,105.5,-524.5,0
24.0,-762.25,-1131.75,-125.25,190.75,1656.75,383.0,-185.5,0
602.25,-542.25,1345.0,-105.25,154.75,1732.5,333.25,-41.0,0
797.0,-628.5,1803.75,-20.0,-86.0,1437.5,643.25,318.5,0
591.5,-390.25,2144.0,-56.75,24.75,1291.25,719.75,497.0,0
576.25,-530.5,2216.75,295.25,-569.75,1204.5,861.0,796.75,0
771.75,-269.75,2279.0,102.25,-948.25,1041.75,971.0,1076.0,0
749.25,-259.75,1167.75,221.75,-1027.75,1069.5,969.0,1085.5,0
625.5,-124.75,252.0,36.75,-1136.75,883.25,1106.75,979.75,0
457.0,-17.0,-3.5,19.5,-1082.5,862.0,1097.0,1085.5,0
247.75,100.5,-110.25,-90.75,-1170.5,733.75,1181.5,1215.25,0
305.0,213.5,-493.25,-126.0,-908.0,713.75,1162.0,1167.5,0
290.25,94.75,-931.25,-117.75,-808.0,603.0,1231.75,1238.5,0
460.75,215.5,-739.0,-301.0,-1227.25,154.0,1133.25,1141.5,0
630.0,360.5,36.5,-194.25,-1910.75,-751.75,1142.25,1068.5,0
469.5,541.5,698.5,-140.25,-1508.5,-1368.0,1116.75,1035.0,0
467.5,502.5,996.25,-171.0,-597.75,-1044.5,1073.0,1028.5,0
836.5,459.75,434.0,-251.75,-495.5,-174.5,1351.5,1063.25,0
928.5,516.0,-562.75,-311.75,-761.0,-330.5,1595.5,1114.25,0
363.75,616.75,-2996.25,-305.25,-592.75,-550.0,1741.5,1008.5,0
-147.75,630.5,-2972.25,-335.25,-6.75,-445.0,1700.5,790.0,0
-340.75,502.25,-2946.5,-238.25,511.75,-163.75,1393.25,491.25,0
-527.25,-85.5,-2935.75,420.75,1234.5,520.75,850.75,94.75,0
-922.75,-840.75,-1805.5,1161.0,1095.5,967.25,617.75,-222.75,0
-784.25,-755.25,-884.25,1143.25,664.0,488.0,662.5,-454.5,0
-915.5,-633.75,10.25,970.5,265.75,-86.5,741.5,-363.75,0
-944.25,-656.75,610.75,1049.5,-38.5,-408.25,793.0,-342.75,0
-996.25,-532.5,1124.25,891.0,266.5,-778.0,817.25,-376.25,0
-992.0,-483.5,1425.5,834.0,-37.0,-1080.75,819.75,-188.75,0
-551.0,-427.0,1876.25,773.75,-251.5,-1362.0,806.75,-269.75,0
-328.75,-408.0,2015.5,708.5,-677.5,-902.75,744.0,-406.25,0
-812.75,-413.75,1738.5,676.25,-843.5,183.5,704.75,-479.25,0
-1140.25,-342.5,1688.0,517.75,-909.0,-88.25,680.0,-455.5,0
-980.75,-305.0,1532.0,432.0,-1067.5,-110.5,714.0,-536.5,0
-976.75,-138.75,776.5,261.5,-1327.5,-165.0,808.0,-694.5,0
-1022.0,41.25,324.0,79.25,-1334.5,-200.0,878.0,-867.75,0
-993.5,217.5,928.5,-180.75,-1092.0,-215.5,932.5,-1282.75,0
-1000.25,352.75,1252.25,-312.5,-981.5,-470.0,927.75,-1798.75,0
-765.5,447.75,1283.5,-319.0,-757.5,-817.5,862.0,-1676.25,0
-647.0,543.0,-640.75,-409.25,-644.25,-542.75,863.5,-1325.25,0
-426.25,571.0,-1222.25,-588.25,-656.25,-27.25,829.25,-1326.75,0
-158.75,601.5,-796.25,-880.75,-1000.25,-76.0,812.75,-1269.75,0
147.0,746.25,-61.5,-1011.0,-959.25,-229.25,812.5,-1051.25,0
647.5,819.25,203.75,-1015.0,-592.75,-402.25,823.75,-919.5,0
670.25,670.0,-993.75,-1042.0,-388.5,-350.5,944.25,-714.25,0
611.75,505.5,-1766.5,-1010.0,-425.75,-259.5,796.5,-461.75,0
516.25,408.25,-1543.25,-872.0,-364.25,-230.25,644.0,-477.25,0
237.25,312.0,-1193.75,-772.0,113.25,-71.25,401.25,-679.25,0
17.75,146.75,-720.5,-681.0,581.75,157.5,149.25,-843.5,0
66.5,-14.75,-20.0,-603.25,732.25,156.75,48.0,-1059.0,0
267.0,-100.25,465.0,-488.25,812.0,90.5,-136.25,-1213.75,0
489.25,-120.75,509.5,-391.0,1114.75,100.75,-333.5,-1398.5,0
771.5,-195.5,373.0,-313.0,1393.0,185.25,-630.5,-1524.25,0
635.25,-249.5,198.5,-206.75,1492.0,424.5,-963.5,-1416.75,0
372.75,-306.75,1327.25,20.0,1512.0,664.25,-1148.5,-1397.0,0
513.0,-323.0,1156.0,122.25,1529.25,876.75,-1286.0,-1386.75,0
629.0,-345.5,558.0,19.5,1258.75,1027.5,-1305.5,-1246.0,0
619.75,-360.75,62.0,46.25,477.75,1027.5,-1330.25,-1139.5,0
637.5,-308.5,-13.75,116.0,41.5,929.75,-1367.25,-1099.25,0
552.0,-239.5,-19.0,111.5,166.5,586.25,-1377.25,-1072.25,0
160.0,-209.0,209.25,156.0,243.0,177.5,-1383.75,-1004.75,0
-151.0,-142.0,83.0,246.75,128.25,-197.5,-1387.75,-883.75,0
-143.75,-160.0,207.5,344.75,-8.25,-443.25,-1454.75,-754.75,0
-270.0,-468.75,172.75,657.0,-328.75,-302.5,-1745.25,-552.75,0
-1021.75,-934.75,-465.25,919.0,-430.75,-434.0,-1836.75,-190.75,0
-992.25,-912.0,-1172.25,863.0,-53.0,-632.5,-1685.5,-75.0,0
-676.75,-785.0,-1236.5,739.75,98.25,-771.75,-1576.25,-158.75,0
-665.5,-835.5,-1207.0,697.75,152.0,-856.5,-1459.75,-159.5,0
-695.75,-685.5,-1215.5,560.5,-22.0,-566.0,-1273.0,-164.0,0
-703.25,-651.5,-462.5,597.0,-244.0,4.25,-1221.75,-78.75,0
-727.25,-461.75,47.25,368.0,-475.25,237.5,-1082.0,-23.25,0
-583.5,-238.75,283.25,177.0,-606.5,485.5,-997.75,73.75,0
-484.5,-257.0,253.5,211.25,-555.75,973.75,-863.25,129.75,0
-144.75,-179.25,536.5,212.0,-1065.0,1017.25,-666.0,174.25,0
-173.5,-140.25,573.25,106.25,-1684.5,683.75,-401.75,221.75,0
247.75,-32.75,88.0,63.25,-1702.75,622.0,-419.0,213.75,0
464.0,-2.5,-405.0,142.0,-1706.25,515.25,-426.25,346.0,0
-163.5,111.25,-646.75,68.25,-1559.25,280.25,-216.75,590.25,0
-610.75,138.0,-609.25,15.25,-1046.5,-167.25,-211.5,751.0,0
-699.25,147.25,-78.75,55.75,-957.5,-435.75,-393.0,807.5,0
-732.75,188.0,682.25,23.25,-668.25,-355.5,-325.75,864.5,0
-390.5,176.25,972.25,-190.5,-42.0,-248.0,317.0,861.5,0
-332.5,253.5,1153.0,-401.75,381.75,13.0,928.5,740.25,0
-415.75,301.75,537.75,-658.0,698.0,326.75,1171.5,557.75,0
41.0,339.75,43.0,-843.0,819.0,901.75,1246.25,563.5,0
362.5,331.25,57.25,-707.5,841.25,1070.5,1102.5,660.0,0
393.25,263.25,-214.25,-536.5,671.25,1082.75,1021.75,596.5,0
357.25,224.25,-248.5,-434.0,557.5,1114.5,1089.25,461.5,0
500.75,156.25,-187.75,-309.25,320.75,1119.0,1177.5,327.25,0
532.5,92.25,243.5,-283.0,210.5,1065.75,1196.5,94.0,0
380.5,100.25,1020.0,-158.25,396.5,585.0,1198.75,-34.5,0
119.5,61.5,1303.75,-13.25,337.5,-340.25,1258.25,146.25,0
-68.0,48.75,956.0,-62.5,188.25,-1014.0,1354.75,304.75,0
60.25,63.0,358.25,-136.25,236.25,-1067.0,1396.75,401.5,0
304.5,107.75,-342.75,-220.5,331.75,-1138.5,1361.5,490.5,0
412.0,118.0,-755.0,-184.25,331.25,-790.0,1376.75,432.0,0
533.75,115.5,-171.75,-139.75,26.0,-222.5,1358.75,303.75,0
501.25,153.5,412.5,-119.75,-108.75,133.5,1310.5,234.5,0
182.25,101.0,482.0,-74.75,-90.25,-373.25,1311.5,230.75,0
204.0,87.25,162.0,-59.75,-250.75,-966.25,1076.0,205.75,0
300.5,69.5,21.0,-60.5,-347.25,-1033.5,782.25,-6.5,0
186.25,67.0,560.5,-115.0,-262.25,-960.5,567.5,-233.75,0
69.0,78.75,779.5,-150.5,-241.5,-909.75,519.0,-352.75,0
-43.25,93.5,-83.0,-198.0,-252.5,-911.25,429.0,-375.75,0
-34.5,91.25,-858.75,-162.0,1.0,-312.75,362.0,-315.5,0
660.75,92.5,-759.0,-179.5,30.0,1006.5,244.5,-315.5,0
1167.75,138.75,-712.25,-244.5,-72.25,1532.75,30.5,-18.5,0
679.25,116.75,-181.25,-441.25,-74.25,1490.75,-166.5,327.5,0
231.25,190.0,105.0,-592.75,143.75,1493.75,-40.25,323.25,0
-147.5,183.75,84.5,-325.5,466.75,1073.0,317.0,225.75,0
-402.25,154.5,805.5,-223.25,676.25,1060.0,296.0,143.5,0
-454.5,188.25,1310.75,-494.5,893.5,1357.75,141.75,76.5,0
-75.25,245.5,1087.75,-827.25,996.25,1300.5,-134.25,9.0,0
313.75,340.25,915.5,-943.5,1019.5,1149.0,-295.25,-85.5,0
302.5,328.5,-60.5,-737.75,960.25,987.25,-160.5,-119.75,0
696.0,307.25,-879.5,-614.5,1090.75,909.0,-114.0,-22.25,0
999.0,298.5,-657.5,-626.5,1407.25,854.75,59.75,-19.5,0
1033.75,344.25,-510.5,-479.25,1474.0,846.25,-60.75,-35.5,0
309.5,396.25,-17.5,-519.25,1113.5,878.75,-107.0,-53.0,0
-416.25,355.5,323.0,-677.25,1120.25,784.75,88.75,-86.0,0
-439.5,293.25,630.75,-590.5,1073.5,746.5,11.25,-37.25,0
-537.5,219.25,791.5,-655.5,583.5,402.5,38.0,1.75,0
-634.5,189.75,576.25,-986.5,681.25,-18.0,0.75,-112.25,0
-272.25,248.25,48.5,-1005.5,1029.5,-81.75,-208.25,-222.0,0
162.5,212.5,-502.75,-421.25,1018.75,-177.0,-559.0,-233.0,0
494.0,140.0,-621.0,-86.25,879.5,-156.25,-775.25,-243.25,0
556.25,106.75,-501.0,-59.25,977.25,1269.75,-1018.5,-178.0,0
554.25,13.0,-305.25,-115.0,1067.25,1806.25,-1131.5,-213.75,0
638.75,-27.0,-286.0,-391.5,1143.0,1744.5,-543.0,-267.0,0
616.5,-59.0,-634.5,-402.0,1259.0,1596.75,-287.75,-235.0,0
458.25,-95.75,-227.5,-339.75,1217.0,1436.75,-544.0,-195.75,0
517.0,-52.5,516.5,-295.0,988.25,1361.0,-527.5,-185.0,0
327.75,88.0,688.75,-178.0,419.25,1328.75,-439.25,-218.0,0
-114.5,204.25,735.0,10.25,284.25,1424.25,-681.25,-195.25,0
-96.5,224.75,272.25,411.75,538.75,1480.25,-959.5,-168.5,0
-303.25,139.0,-63.25,661.75,804.75,1199.5,-1084.25,-125.75,0
-714.25,162.5,-548.25,486.5,533.0,484.5,-784.0,-70.25,0
-446.75,405.25,-533.25,325.5,71.25,-110.25,-563.25,-56.75,0
-33.75,462.25,-321.5,283.0,202.75,-382.5,-853.0,77.5,0
344.75,478.0,-341.5,64.75,62.75,-500.5,-1167.5,251.5,0
359.75,470.0,-29.25,-203.75,-187.75,-403.5,-1079.75,409.5,0
270.75,379.5,578.0,-222.0,207.75,-365.25,-1012.0,555.25,0
415.5,145.75,303.25,-398.5,406.25,-351.75,-1242.5,317.75,0
140.5,-19.25,-286.5,-320.25,-136.5,-515.0,-1453.75,-158.5,0
-651.0,33.75,-167.75,231.75,-82.75,-603.25,-1308.25,-448.0,0
550.5,76.5,-217.75,745.25,859.5,-866.5,-858.0,-233.5,0
1073.0,-7.25,-169.25,916.25,1225.0,-784.0,-599.5,-48.25,0
-418.0,-51.25,19.25,1092.25,1493.75,-546.5,-383.75,-37.25,0
-732.75,-486.5,-111.5,1402.0,1704.25,1104.75,-447.25,430.75,0
-851.0,-1026.0,-683.5,1631.75,1668.25,1191.0,-712.5,574.0,0
-1233.0,-1093.75,-432.0,1697.5,1708.5,795.0,-799.5,308.75,0
-1641.25,-969.25,-59.5,1716.5,1782.75,542.0,-820.25,365.25,0
-1712.5,-994.5,-81.75,1792.0,1793.5,1032.25,-1029.0,370.0,0
-1530.5,-818.0,-83.0,1548.75,1163.75,1546.5,-1079.5,370.75,0
-1389.0,-709.5,-554.5,1494.75,-29.5,1545.5,-1427.25,198.5,0
-1763.75,-486.25,-1136.25,1242.0,-884.25,1259.75,-1173.5,132.0,0
-1745.25,-291.25,-801.25,853.25,-1106.0,1046.5,-1000.75,354.75,0
-1022.75,-173.75,-476.75,368.5,-1196.5,947.25,-1199.0,479.0,0
108.25,-57.25,-702.0,-34.5,-1298.0,1055.75,-934.0,725.25,0
985.25,-58.75,-1045.75,-85.75,-1507.0,925.25,6.75,840.5,0
408.0,-27.0,-651.25,22.25,-1803.25,786.0,799.5,889.5,0
-255.5,-81.75,-513.0,-50.5,-2013.75,581.5,919.25,824.0,0
-167.0,-83.5,-300.0,-806.25,-2115.5,349.25,827.75,681.0,0
217.25,-59.75,731.25,-1097.25,-2093.25,-9.0,533.75,437.75,0
510.75,-22.75,1662.5,-773.25,-1991.0,-11.25,424.5,145.0,0
600.75,-46.0,1948.5,-329.75,-1990.5,91.5,728.25,114.25,0
850.5,-22.25,1972.25,-16.0,-2033.5,-235.25,851.5,189.5,0
913.0,40.0,1843.25,370.5,-2345.75,-540.25,1144.5,252.0,0
769.5,90.75,-160.25,849.25,-2341.75,-659.0,900.25,222.5,0
962.75,106.25,-1229.0,942.0,-2311.75,-478.25,581.25,194.0,0
756.25,73.5,-1151.25,752.25,-2292.75,-624.25,653.25,177.0,0
398.5,65.75,-772.25,484.75,-2267.25,-1367.0,664.25,183.25,0
522.5,79.5,-522.0,423.5,-2234.5,-1714.5,417.0,144.75,0
745.75,131.25,-581.25,538.5,-2208.0,-1414.5,568.25,52.75,0
701.5,108.5,-105.5,477.25,-1712.25,-1608.5,1097.75,54.25,0
810.75,70.0,1232.25,314.0,-845.75,-2057.5,1456.25,22.0,0
1660.5,70.0,1690.25,222.25,-126.25,-2071.5,1271.25,-2.25,0
2098.25,53.5,1172.25,-308.75,-125.5,-2202.75,501.0,146.75,0
835.5,19.5,28.25,-742.25,241.5,-2301.25,-170.25,191.5,0
-793.0,28.5,-599.0,-506.5,558.5,-2380.5,-215.75,60.25,0
-1208.0,12.5,-1214.75,-447.25,933.0,-2526.5,-183.0,-11.5,0
-1350.0,-33.75,-1733.75,-456.0,1268.0,-2466.25,451.25,0.25,0
-758.75,44.75,-1491.75,-480.0,1582.75,-2251.75,1220.5,35.75,0
-1295.75,101.25,-1666.75,-758.0,1796.25,-2366.75,1611.5,89.75,0
-1638.25,103.75,-1887.0,-653.5,1862.25,-2190.5,1527.0,116.75,0
-896.0,121.5,-1750.5,-199.25,1775.0,-2035.25,1238.25,17.5,0
-216.25,146.0,-1404.5,36.75,1634.25,-2253.75,1005.5,2.25,0
-101.0,74.25,-393.25,88.75,1662.25,-2207.0,509.0,89.25,0
301.0,54.25,-3.25,295.25,1501.0,-2160.0,708.25,131.75,0
46.25,98.75,1498.5,390.5,794.0,-2194.25,726.25,134.25,0
-354.75,79.25,1984.75,380.0,51.25,-1922.25,208.0,157.5,0
512.0,84.5,1333.0,383.25,-424.5,-1520.75,-306.75,298.0,0
1264.5,16.5,303.0,260.75,-327.25,-1216.0,-566.5,492.25,0
1605.75,-34.25,-333.75,-378.25,24.75,-647.75,-310.0,781.75,0
1804.75,-72.75,86.75,-889.75,202.75,-60.75,-68.75,879.25,0
1849.25,-24.0,610.75,-715.25,161.5,270.25,49.75,790.5,0
-405.0,91.75,276.0,-523.75,47.25,434.75,273.25,810.75,0
-928.0,105.25,447.25,-431.25,10.5,89.25,132.25,668.75,0
-1435.75,84.25,1000.75,-559.25,-408.5,-196.25,-402.25,445.5,0
-1501.25,10.75,1639.0,-519.25,-531.75,141.5,-809.5,248.25,0
-1389.75,2.0,1792.75,-566.0,-614.75,497.75,-344.5,23.75,0
15.0,35.75,1517.5,-748.5,-547.75,933.0,233.75,-121.25,0
1333.0,44.5,1845.5,-822.5,-523.25,1447.5,336.0,-150.0,0
1604.75,27.5,1796.25,-755.0,-504.75,1557.5,391.25,-107.5,0
625.25,-9.75,-1194.75,-491.75,-357.75,1231.75,567.0,-131.0,0
-214.0,18.25,-2430.5,-373.75,-273.0,1174.75,898.25,-64.75,0
204.25,51.75,-2539.25,166.25,-94.25,1132.0,944.0,-35.75,0
1070.0,97.5,-2446.0,761.75,-251.25,876.0,845.75,-172.25,0
-19.25,91.5,-1630.75,830.0,-384.5,1115.5,1231.0,-287.75,0
-1190.5,18.5,-662.5,823.0,-227.0,1138.0,1510.75,-343.5,0
-1471.0,-50.75,-189.25,884.5,131.0,1062.75,1552.0,-357.75,0
-1934.75,-121.0,-171.5,678.5,638.75,863.5,1796.5,-453.25,0
-1928.5,-107.0,-309.75,96.5,1088.25,612.75,1735.25,-506.25,0
-1818.75,-32.5,-1598.75,-197.5,1388.5,710.75,1670.25,-514.75,0
-282.75,-12.75,-1803.5,-67.5,1804.25,559.25,1287.25,-603.5,0
815.5,-49.75,-2371.25,-85.25,1571.5,130.5,928.5,-613.25,0
1560.5,-21.5,-1708.25,-68.5,1270.0,194.25,910.75,-644.25,0
2037.0,-11.25,-896.5,228.5,1129.0,683.75,1060.5,-584.25,0
2139.5,-99.75,617.5,561.5,1135.0,644.75,1514.25,-565.75,0
1943.75,-97.5,2855.75,385.5,1175.0,187.75,1494.0,-559.75,0
1583.0,0.25,2990.0,513.25,1125.25,-460.25,1320.25,-441.75,0
962.0,42.75,2990.0,980.0,1013.25,-695.0,-476.5,-518.75,0
537.25,16.25,2720.75,984.5,915.5,-615.0,-1410.0,-381.75,0
439.25,-29.5,1998.25,1056.0,773.25,-453.25,-1749.5,-238.75,0
-1551.0,11.5,1986.25,1007.75,636.5,-225.25,-1898.75,-518.75,0
-2121.75,46.25,1759.25,897.0,559.5,-225.0,-1571.0,-938.75,0
-1971.75,58.25,384.75,1063.5,483.0,32.25,-844.0,-1217.75,0
-1320.0,81.75,-1279.5,999.0,473.75,235.25,-971.0,-1222.5,0
-588.25,38.0,-2646.0,502.75,12.25,174.0,-987.75,-1265.75,0
-218.5,67.25,-2267.5,229.5,-929.5,-121.75,-1062.0,-1246.0,0
17.25,49.75,-2047.75,173.5,-1119.0,-345.0,-1587.5,-1154.0,0
122.25,-2.0,-1987.75,-200.0,-922.25,-569.0,-1966.5,-1074.0,0
6.75,30.75,-1665.25,-555.25,-985.75,-673.0,-1936.0,-960.0,0
-572.5,51.0,-908.5,-782.0,-1288.0,-666.75,-2038.25,-706.0,0
-976.5,163.75,-47.5,-939.75,-1551.5,-640.75,-1739.5,-541.0,0
-1269.25,242.25,309.5,-913.25,-1756.25,-406.25,-858.75,-454.75,0
-501.25,220.75,434.5,-877.25,-1923.5,96.75,-793.75,-413.25,0
147.75,148.5,652.5,-174.0,-2019.5,548.75,-977.5,-384.25,0
415.25,54.25,860.75,230.75,-2130.5,289.0,-1220.75,-164.25,0
813.75,19.0,1075.5,191.5,-2109.0,74.0,-1429.0,57.5,0
145.0,-32.25,1058.75,360.5,-1682.75,-259.0,-1237.25,244.25,0
-168.25,-59.5,864.0,305.25,-987.75,-117.5,-770.0,208.25,0
-41.0,-83.25,851.75,115.5,-627.75,-4.0,-98.25,212.75,0
-196.5,-130.25,870.25,220.75,-576.0,-253.75,-100.75,281.25,0
1481.0,-132.75,1151.0,402.0,-720.0,-110.0,-526.75,208.75,0
2457.25,-163.75,1158.5,481.5,-882.25,-46.5,-1011.5,158.75,0
2440.0,-231.25,534.25,195.75,0.0,-247.0,-1566.75,153.5,0
2262.5,-238.5,81.0,-2.75,791.75,-570.75,-1567.0,283.25,0
1945.0,-127.0,33.75,-375.25,877.0,-247.25,-1096.5,352.75,0
1625.0,-34.5,-255.75,-566.25,715.5,192.5,-1313.0,365.5,0
1146.0,-15.25,-336.5,-722.75,314.5,449.75,-1867.25,413.25,0
1019.5,-67.5,-171.5,-759.75,67.5,428.5,-1603.25,409.75,0
534.0,-154.75,395.0,-654.25,28.5,394.5,-1505.25,448.75,0
-348.0,-139.25,700.75,-687.5,16.75,611.75,-456.5,533.5,0
-783.75,-132.5,104.5,-861.25,-35.25,685.75,228.75,561.75,0
-47.0,-109.0,-171.75,-834.75,-25.75,584.5,170.25,594.75,0
234.25,-73.5,-138.0,-798.0,-23.5,470.5,-108.0,544.0,0
-861.75,-87.75,14.25,-1157.75,343.5,461.5,-590.25,522.0,0
-1624.5,-97.75,-48.0,-1579.5,919.0,137.0,-961.25,603.5,0
-1716.5,-122.0,209.25,-1460.5,1433.75,-468.25,-1094.75,673.5,0
-1729.5,-41.0,537.0,-1199.5,2001.0,-464.25,-566.5,919.75,0
-1368.75,61.5,685.0,-758.25,2096.75,527.0,-387.5,1130.25,0
-1298.5,39.0,1419.75,-534.5,2077.5,970.5,-618.5,1316.0,0
-705.0,17.5,1327.75,-646.75,2004.0,955.0,-381.5,1482.25,0
-322.0,26.5,537.75,-1190.5,1633.5,760.75,456.0,1485.5,0
229.0,218.25,-309.5,-946.75,1287.5,200.0,183.5,1268.25,0
1531.25,566.25,-874.75,233.0,1341.0,386.0,-568.5,878.75,0
1717.25,474.5,-738.25,464.25,1452.5,559.0,-581.0,559.5,0
998.0,352.75,-1154.25,554.0,1458.5,476.25,-620.5,318.0,0
810.0,302.0,-937.75,699.5,1512.25,126.75,-546.5,243.0,0
348.75,230.75,-422.75,774.0,1451.0,-493.0,-907.5,427.75,0
430.0,177.75,-153.5,921.75,1605.0,-1062.25,-1472.75,577.0,0
1139.0,103.5,-258.75,808.25,1808.25,-1066.75,-1873.5,755.0,0
1213.75,-12.25,-473.5,575.0,1553.25,-788.0,-1860.25,953.0,0
1323.0,-13.5,-860.75,-45.5,671.5,-74.75,-1534.5,1155.75,0
-691.0,-24.25,-486.5,-428.25,-268.75,155.5,-1263.75,1337.25,0
-872.0,-69.75,-292.25,-166.5,-620.5,396.75,-1140.25,1447.25,0
-870.75,-113.75,-259.25,108.5,-1044.5,398.5,-1279.0,1466.0,0
-1054.75,-151.75,675.25,336.75,-1455.25,402.75,-1285.5,1395.75,0
-1398.5,-135.0,60.25,629.5,-1844.25,844.0,-1297.75,1178.75,0
-1546.25,-103.75,-242.75,898.0,-1747.0,1113.0,-1382.0,1070.75,0
-1539.75,-215.25,-338.25,776.0,-1671.25,1328.5,-1295.75,993.5,0
-800.0,-243.25,-806.25,976.25,-1596.0,1074.0,-1211.0,599.75,0
842.5,-119.25,-590.25,958.5,-1402.5,471.0,-1091.0,98.5,0
733.25,-186.75,293.75,727.0,-975.75,267.5,-1198.75,39.0,0
-444.25,-717.75,70.5,-229.0,-825.5,-3.5,-1165.0,162.0,0
-374.0,-735.25,310.75,-1194.25,-1410.25,-159.25,-837.5,-98.5,0
-1321.5,-610.5,871.5,-1310.5,-2350.5,192.75,-670.75,-182.75,0
-1529.25,-642.0,-362.25,-1392.25,-2744.0,462.25,-647.25,-245.5,0
-1315.5,-381.0,-133.0,-1621.25,-2632.25,518.75,-689.75,-395.75,0
-975.5,-145.75,-269.75,-1404.75,-2535.5,665.25,-592.5,-557.5,0
-227.5,424.0,515.0,-1658.5,-2271.75,316.75,-212.75,-982.75,0
165.5,1066.25,765.25,-904.75,-1968.25,-73.25,-194.0,-916.5,0
-83.75,1032.75,988.5,-238.5,-1780.25,-77.75,35.0,-598.0,0
-629.25,951.75,638.5,-432.0,-1211.0,93.5,503.75,-540.75,0
27.5,869.0,393.5,-109.75,-1201.5,-50.5,822.5,-833.25,0
557.0,738.0,-166.25,315.0,-1282.5,71.75,978.25,-1053.25,0
759.75,651.5,-1882.25,613.5,-754.0,561.25,1271.75,-1085.0,0
-179.25,403.25,-1768.75,706.5,-533.5,748.25,1522.0,-1189.75,0
-361.25,174.0,127.75,803.75,-460.5,1107.5,1332.5,-1039.25,0
272.5,-341.0,959.25,1328.5,-570.0,1705.25,555.25,-510.0,0
-297.25,-807.25,-559.25,1948.0,-746.25,1826.0,31.75,-506.0,0
-621.0,-726.75,-1154.25,2014.25,-790.75,1639.5,303.0,-600.5,0
614.0,-597.5,-1609.5,1734.75,-902.75,1356.25,656.75,-367.25,0
675.0,-648.75,-1954.0,1653.25,-1026.0,1154.75,690.0,-452.25,0
242.75,-470.5,-1618.0,1338.0,-1293.0,896.0,1011.25,-564.75,0
416.75,-468.25,-867.0,1366.0,-1539.75,981.25,954.0,-708.0,0
273.25,-306.0,-547.0,1302.25,-1625.0,889.25,1108.5,-795.0,0
883.5,-345.5,477.0,1116.0,-1774.25,694.75,1030.75,-577.25,0
461.0,-455.25,938.5,894.25,-2009.25,517.75,1063.5,-659.75,0
738.5,-556.75,1484.75,580.5,-2183.75,349.0,1072.0,-638.0,0
-194.0,-493.0,1431.5,438.0,-2089.25,34.75,1079.75,-703.25,0
-446.5,-277.5,509.25,202.5,-1734.5,-510.0,1085.75,-783.0,0
-603.5,-149.5,-198.5,135.5,-1215.0,-649.75,1021.5,-880.0,0
-730.0,20.5,-1518.25,-9.25,-910.75,-429.0,1073.0,-1011.5,0
-879.25,167.0,-1902.75,-170.5,-733.5,-496.25,1021.75,-851.5,0
-787.25,187.0,-1797.5,-432.5,-695.75,-515.0,1045.25,-484.25,0
-926.0,90.25,-525.0,-644.0,-499.0,-419.0,1067.75,-368.5,0
-77.75,68.0,1005.5,-711.5,-317.75,-455.25,1062.75,-473.25,0
734.75,-2.75,1255.5,-669.0,-237.75,-625.75,1000.25,-473.0,0
601.0,-30.25,1232.25,-618.75,-408.5,-838.25,940.75,-304.0,0
1004.5,-46.5,1258.25,-612.0,-434.0,-805.0,874.75,2.0,0
1119.75,-61.75,560.5,-667.25,-261.5,-595.75,878.25,127.0,0
1165.0,-46.75,223.5,-855.5,60.5,-373.0,904.75,386.75,0
966.5,-14.5,716.25,-911.75,0.25,-283.75,927.25,413.5,0
749.75,84.25,544.25,-903.5,-18.0,-328.5,902.5,407.25,0
821.5,158.25,-1073.75,-924.75,-99.25,-430.0,838.75,682.25,0
238.5,194.5,-2163.0,-860.0,-423.5,-412.0,867.25,838.5,0
312.25,186.25,-1651.25,-716.75,-197.0,-110.75,770.5,707.75,0
252.5,166.5,-896.5,-695.25,-72.5,309.5,646.5,345.0,0
196.0,249.0,-960.25,-899.75,-786.25,427.0,708.5,300.25,0
956.25,754.0,-538.75,-1259.25,-1289.0,163.0,672.5,157.5,0
1204.0,1106.25,258.5,-1288.0,-1344.5,95.5,375.75,178.75,0
1283.5,1057.5,414.75,-1307.75,-1496.0,-340.0,179.5,218.25,0
1589.75,952.0,1252.25,-1412.0,-1766.75,-917.25,32.0,165.0,0
1029.75,930.0,1247.75,-1386.25,-1401.0,-1140.5,-240.0,299.25,0
422.25,689.25,877.75,-1460.25,-779.25,-1380.0,-437.25,265.5,0
543.0,623.25,705.25,-1387.75,-429.25,-1105.0,-849.25,263.5,0
403.0,430.75,-357.75,-1123.75,-305.5,-863.5,-1190.25,129.75,0
335.25,290.5,-1799.25,342.75,-823.5,-461.25,-1858.0,614.0,0
-1085.0,-442.75,-1747.5,1604.5,-1078.25,-159.5,-1909.0,1279.25,0
-4.5,-539.0,-1699.25,1778.75,-1503.0,-434.25,-1762.0,875.5,0
169.25,-322.25,-1614.5,1682.5,-2250.5,-391.25,-1816.75,840.75,0
37.0,-465.75,-571.75,1723.75,-2712.5,-234.75,-1594.75,1231.5,0
168.75,-351.0,216.75,1403.0,-2665.75,-305.75,-1431.75,1217.0,0
-1358.75,-588.75,1009.25,1378.25,-2423.5,-161.25,-1350.25,1291.75,0
-1716.5,-823.5,715.75,1211.0,-2649.0,-254.5,-1168.25,911.25,0
232.75,-880.5,-437.75,1285.75,-1282.5,-118.25,-1095.25,762.0,0
-516.5,-1147.0,-795.25,1341.25,28.0,62.25,-919.5,555.5,0
-1402.5,-1227.25,-1298.75,1325.5,558.5,192.25,-922.5,184.0,0
-1400.5,-1223.0,-736.75,1242.25,639.25,209.5,-944.75,58.5,0
-1273.5,-869.25,-530.25,1073.25,656.25,45.25,-950.5,-88.25,0
-1107.25,-638.75,-745.5,1049.75,522.75,-133.0,-772.5,-109.0,0
-1101.5,-388.75,-403.5,869.25,8.0,-346.75,-683.25,-472.75,0
-907.25,27.5,583.25,708.25,-366.0,-430.25,-650.0,-739.0,0
-723.5,389.75,729.75,473.75,-438.25,-539.5,-375.75,-562.25,0
-604.25,409.5,44.0,153.5,-142.0,-617.25,-34.0,9.5,0
-442.0,363.5,94.0,-273.0,34.75,-600.0,261.75,410.0,0
-293.75,417.0,212.75,-573.5,223.5,-507.0,312.5,319.0,0
69.25,507.5,284.25,-832.5,-185.0,-538.0,669.0,15.5,0
1632.75,509.75,-207.5,-1182.75,-564.5,-551.75,958.75,-668.25,0
1721.5,371.75,-319.0,-1512.25,275.5,-616.5,928.5,-1017.75,0
1589.75,441.25,333.25,-1616.25,939.5,-824.75,825.75,-1327.25,0
1273.0,578.5,386.75,-1454.75,928.25,-908.0,861.75,-1516.25,0
1327.75,667.25,91.5,-1421.5,287.0,-420.5,1118.5,-1351.25,0
1179.5,495.5,761.75,-1458.25,-210.0,262.0,1163.0,-1161.5,0
342.5,294.75,1026.75,-1286.0,-58.25,442.25,1189.25,-539.25,0
409.25,60.0,727.0,-668.5,200.75,711.25,928.5,-210.0,0
-137.5,-368.75,-463.0,140.25,277.75,639.5,453.5,-418.0,0
-9.0,-560.5,-527.5,-32.25,516.75,146.75,298.75,-892.25,0
2.5,-466.25,871.0,-127.0,488.0,-22.5,48.5,-1099.5,0
-313.75,-348.0,1453.25,-72.25,-436.5,-404.75,-541.0,-852.75,0
379.0,-47.25,1721.75,-353.75,-1146.5,-710.0,-930.5,-843.75,0
622.75,-120.75,1332.5,-251.25,-1166.75,-373.0,-1017.25,-845.0,0
683.75,-149.75,830.5,-716.75,-1023.0,-255.5,-966.75,-882.25,0
925.5,-14.25,1109.0,-641.25,581.0,-82.5,-1048.5,-998.0,0
739.0,-173.0,266.0,-450.0,862.0,-16.75,-1042.0,-935.25,0
831.0,3.0,-197.5,-678.0,218.5,-232.75,-1020.5,-999.5,0
898.0,-22.75,-317.0,-206.75,244.0,-184.75,-773.0,-949.75,0
807.75,-67.5,-2166.0,146.25,-246.25,-151.5,-446.75,-852.5,0
703.5,-197.5,-1820.75,219.75,-696.25,189.75,-655.25,-733.25,0
518.25,-434.0,-1236.75,150.0,-749.25,452.25,-787.75,-304.25,0
185.0,-615.75,-1178.5,379.0,-1298.25,586.25,-657.25,-78.0,0
-318.5,-859.75,-1479.5,548.0,-2174.25,713.5,-415.5,-75.75,0
-597.0,-719.75,-1878.0,232.75,-2309.5,711.25,-567.0,-150.25,0
-172.25,-342.5,-519.25,-479.0,-2506.5,732.25,-906.75,-215.0,0
-157.5,0.5,-24.0,-695.75,-1910.5,720.75,-913.5,-433.25,0
-851.0,299.0,1444.0,-572.75,-1635.0,884.5,-892.75,-467.0,0
-1006.75,606.25,1390.5,-731.75,-1928.75,974.25,-833.0,-427.0,0
-1051.5,788.75,670.0,-980.25,-2598.75,977.75,-728.0,-396.75,0
-1206.25,732.0,658.5,-1248.0,-2820.75,952.25,-747.0,-383.25,0
-1155.75,889.5,749.5,-1243.75,-1877.0,905.75,-737.0,-382.5,0
-831.5,1659.25,-90.5,-1205.0,-994.25,737.25,-173.0,-418.25,0
-245.5,1797.25,119.0,-1144.5,-653.5,690.5,216.0,-363.0,0
-3.75,1632.0,578.25,-884.25,175.0,878.75,210.25,-502.0,0
194.25,1190.25,318.0,-494.0,804.75,1099.75,-27.0,-331.0,0
908.25,262.5,723.5,136.75,674.75,1208.0,-166.25,505.75,0
965.5,-219.0,733.75,411.25,405.0,1173.0,-124.0,1399.75,0
1178.75,-481.25,500.75,199.25,559.25,1095.0,-92.0,1768.0,0
451.75,-1026.25,-79.25,233.5,212.0,1127.5,-165.5,1740.25,0
202.5,-1480.0,-821.25,137.25,298.75,929.75,-71.25,1650.75,0
44.25,-1637.5,-204.25,143.25,279.0,132.75,-118.25,1605.5,0
-248.0,-1609.0,471.5,257.75,223.75,-675.75,-679.75,1652.0,0
139.75,-1560.0,-654.5,180.5,138.0,-1148.25,-1241.75,1662.75,0
438.75,-1531.5,-1279.75,159.25,-202.75,-1179.25,-1257.0,1839.75,0
426.25,-1487.75,-976.0,131.25,-243.5,-1290.75,-996.5,2042.0,0
137.25,-1421.75,-959.25,79.5,-60.0,-1386.25,-277.25,2120.5,0
-1110.75,-1365.75,-972.5,-12.75,322.75,-1429.25,291.75,2070.75,0
-1504.5,-1282.5,-1298.0,171.75,-52.75,-1442.75,-117.0,1848.75,0
-1632.5,-993.0,-635.25,379.75,-633.75,-1076.75,-464.0,1587.0,0
-1148.5,-494.5,718.75,416.0,-712.0,-919.75,-236.75,1322.0,0
-418.75,-92.25,1322.0,417.25,-430.75,-888.25,-350.25,1187.5,0
-354.5,252.25,1312.25,121.0,-260.25,-697.25,-899.25,1102.5,0
-459.75,517.25,921.75,-12.0,650.5,-523.0,-852.25,1060.75,0
-305.25,703.0,403.75,-43.0,1305.0,-471.5,-755.0,626.75,0
80.0,876.25,-948.25,-199.25,1406.75,-259.25,-738.25,224.25,0
598.25,1130.75,-1763.0,-400.0,1610.0,43.0,-816.0,3.75,0
973.0,1238.75,-994.5,-455.25,1846.75,247.5,-797.25,-209.5,0
1399.0,1205.0,124.75,-348.5,1975.5,581.75,-826.75,-490.25,0
450.0,1212.5,737.5,-267.0,2052.5,542.75,-991.75,-720.0,0
-783.5,1211.75,1070.75,-156.0,1871.75,228.5,-1110.0,-753.5,0
-1315.75,1223.0,147.75,6.25,1721.0,-312.75,-832.5,-812.5,0
-1760.5,1233.5,-326.5,146.0,1664.25,-1095.5,-83.25,-681.5,0
-2052.75,1143.25,-406.25,175.25,270.75,-1083.0,445.5,-140.0,0
-1918.25,1078.0,-115.25,82.5,-352.75,-899.25,602.5,577.5,0
-685.75,1104.25,-243.25,-172.25,-160.75,-346.25,842.25,969.5,0
-228.5,982.25,-514.75,-420.5,98.5,-89.0,986.75,1158.75,0
-53.0,800.5,-868.25,-468.5,487.25,34.0,1179.75,1121.5,0
64.25,769.0,-313.0,-205.25,533.0,150.25,1178.0,642.25,0
1042.5,667.25,504.5,-111.75,361.75,49.75,1148.5,476.0,0
1625.25,528.0,1045.5,-113.5,257.0,-23.0,1132.75,520.0,0
1284.25,367.75,855.75,-66.25,151.25,17.25,1123.5,274.75,0
873.5,351.75,1033.5,69.75,41.5,180.75,1102.0,-150.5,0
157.75,407.75,214.5,209.0,21.75,408.75,828.0,-573.25,0
68.75,449.75,-799.75,91.75,21.0,434.25,152.5,-1149.5,0
160.25,455.75,-763.75,15.5,-41.5,522.75,-293.0,-1691.25,0
507.0,431.25,-827.5,25.25,-53.5,597.5,-586.5,-1994.75,0
1103.75,369.5,-902.5,57.25,-18.5,645.0,-516.25,-2125.0,0
1556.0,208.75,-1034.5,73.5,13.75,630.75,-189.0,-1924.5,0
1504.75,86.25,-1200.25,252.0,26.25,493.25,-54.5,-1825.75,0
1110.75,7.0,-659.25,363.75,-408.75,383.0,-300.75,-1767.5,0
707.25,4.5,242.0,322.0,-704.75,425.0,-179.25,-1909.75,0
29.0,30.5,801.75,248.0,-599.75,606.5,-44.5,-2254.25,0
-252.5,-31.25,766.25,156.5,392.5,620.75,-50.75,-2436.75,0
-351.0,-164.75,994.0,73.5,670.75,639.5,-55.0,-2353.5,0
72.5,-261.5,1169.75,-70.75,-301.25,652.5,778.0,-2100.0,0
490.75,-172.25,1230.5,-116.5,-760.5,645.0,1802.0,-1934.25,0
209.25,-107.0,1270.25,-144.0,-413.0,716.25,1714.75,-1822.25,0
-216.0,-138.0,1224.0,-184.75,-142.5,670.75,1513.75,-1525.0,0
-193.5,-180.75,1031.25,-154.75,1069.0,666.0,1610.5,-1351.5,0
-112.0,-187.25,136.25,16.25,1743.5,641.75,1491.25,-1160.5,0
-222.75,-172.0,-491.5,90.75,1723.25,485.0,1499.75,-730.75,0
68.5,-232.0,-640.25,71.5,2312.5,351.25,1096.5,-430.25,0
383.5,-294.25,-533.0,1.5,2336.0,302.0,-176.0,-233.0,0
806.0,-315.25,-383.5,-132.75,2235.75,206.25,-461.5,-51.0,0
1125.25,-335.0,-586.5,-253.0,2200.25,-104.25,-399.25,-48.5,0
1127.25,-466.0,-1000.25,-414.0,1389.5,-240.5,-486.5,-34.25,0
1154.25,-598.0,-1244.75,-406.5,233.0,67.75,-587.75,-19.0,0
1236.0,-594.5,-872.0,-415.5,139.0,554.0,-441.25,-32.0,0
530.25,-544.75,-206.0,-403.5,121.25,939.75,-221.75,-39.25,0
-233.75,-508.0,386.5,-353.25,-276.25,787.5,69.0,-51.0,0
-534.5,-507.75,823.0,-421.0,-797.0,265.75,35.75,13.0,0
-606.0,-507.75,973.0,-468.5,-1329.75,-140.0,-102.75,341.25,0
-660.25,-379.5,1178.0,-509.0,-1282.75,-463.0,-39.0,829.75,0
-721.25,-229.0,1100.0,-558.0,-1097.75,-758.0,-73.0,1592.0,0
-252.0,-160.75,603.25,-625.75,-924.0,-927.75,67.25,1924.75,0
418.75,-164.5,-253.75,-667.75,-750.0,-931.75,120.75,1915.5,0
706.25,-249.25,-1042.75,-685.75,-456.0,-740.0,235.25,1913.5,0
331.75,-306.5,-1550.25,-758.75,-388.75,-635.75,323.5,1609.0,0
-12.0,-291.5,-1483.25,-792.25,-1036.0,-780.5,436.5,1148.75,0
-370.5,-193.0,-1674.5,-775.5,-1935.5,-750.25,480.25,801.25,0
-292.0,-151.0,-1341.5,-731.25,-2359.75,-639.25,527.5,678.75,0
240.25,-223.0,179.0,-519.25,-2362.5,-502.75,432.0,716.25,0
1175.75,-175.0,1222.5,-266.75,-2230.0,-363.25,56.0,835.75,0
1746.5,-42.5,950.5,-60.5,-2172.5,-244.75,-92.0,497.75,0
938.5,48.75,1023.25,436.75,-2219.25,-196.75,-123.5,132.75,0
-198.75,-18.5,1847.0,1197.0,-2223.75,-165.0,-72.75,-184.75,0
-1063.5,-1.5,1730.75,1184.25,-2074.0,143.75,-69.75,-677.25,0
-1550.5,147.75,1305.0,921.25,-1857.0,417.25,257.75,-1008.5,0
-1343.25,173.0,-53.75,920.75,-1639.25,539.75,427.5,-1066.75,0
-1513.0,166.5,-964.5,957.0,-1454.5,366.25,238.25,-1174.25,0
-122.0,164.0,-1389.0,936.5,-1376.0,245.5,180.25,-1305.25,0
489.0,115.25,-2819.75,953.0,-1368.25,177.0,-0.75,-1491.25,0
653.5,115.0,-2230.5,932.75,-1257.25,-232.25,-22.5,-1601.75,0
548.5,219.75,-1711.5,947.75,-1296.5,-559.0,-197.0,-1573.25,0
-496.0,277.75,-286.5,935.75,-1292.5,-583.0,-529.0,-1436.75,0
-460.75,287.5,780.25,949.25,-1264.5,-148.25,-835.5,-1271.75,0
-571.75,354.0,1573.25,946.75,-1297.25,157.5,-989.5,-1203.0,0
-592.75,408.25,1890.25,993.5,-1418.5,125.25,-918.0,-1128.25,0
-614.25,421.75,738.25,1028.75,-1673.5,143.25,-744.75,-1031.75,0
515.25,349.5,-477.75,936.5,-1810.25,-178.25,-453.5,-942.25,0
1253.75,288.0,-466.5,888.0,-1964.25,-347.75,-311.25,-869.75,0
1222.75,245.25,-968.5,408.5,-2009.75,106.0,-210.75,-786.0,0
1174.25,158.5,-213.75,-10.25,-1684.5,741.5,-291.0,-694.5,0
776.0,97.0,928.25,-303.5,-1327.75,914.25,-416.5,-436.0,0
546.0,72.5,1046.25,-698.0,-1052.5,846.0,-175.25,-303.75,0
743.75,18.0,1224.25,-895.25,-703.5,850.75,8.5,-302.75,0
872.0,-37.5,941.25,-978.5,-317.25,626.25,-9.75,-147.5,0
900.5,-70.5,563.25,-975.0,114.25,242.75,-147.75,27.0,0
965.5,-147.5,-243.25,-1008.25,928.75,-151.5,-66.75,306.25,0
767.75,-161.75,-1409.75,-1041.25,1477.75,39.25,306.5,517.75,0
557.75,-62.5,-1707.75,-962.5,1818.25,-36.75,510.75,765.0,0
-186.75,-61.5,-1706.75,-935.75,1906.75,-266.5,516.75,884.25,0
-922.75,-56.25,-1806.25,-961.5,1936.75,-175.5,428.0,944.0,0
-624.0,-49.0,-1354.25,-1044.0,2058.75,24.75,320.75,919.5,0
-10.5,-142.0,-399.25,-1048.0,2099.0,4.5,353.5,821.0,0
676.75,-189.25,410.25,-925.75,2077.25,-394.5,503.75,805.5,0
346.0,-172.0,723.5,-849.5,2092.75,-547.5,608.5,757.0,0
-218.5,-140.0,784.25,-857.25,2094.0,-576.25,738.25,716.75,0
-887.0,-219.75,511.5,-891.5,1871.25,-820.25,1008.25,673.25,0
-1134.5,-294.0,224.0,-881.0,1484.25,-1200.5,919.75,704.75,0
-1133.25,-245.0,455.25,-871.5,884.5,-854.0,505.5,638.25,0
-1124.25,-131.5,1321.0,-938.0,448.5,-488.25,656.25,612.0,0
-1102.75,-89.25,1299.5,-1001.75,154.75,-202.25,1287.75,609.25,0
-951.5,-131.25,1037.25,-859.25,-155.0,-187.5,1050.25,560.25,0
-55.25,-38.25,495.25,-664.75,-638.0,-807.0,46.25,537.75,0
510.5,99.25,-1058.75,-501.0,-1105.5,-1127.25,-504.5,433.25,0
1043.5,245.0,-1486.5,-325.25,-1239.0,-1369.25,-1184.75,395.25,0
1121.75,334.75,-1117.0,-148.5,-811.5,-1464.0,-1404.0,349.5,0
1101.0,268.75,-735.0,58.75,-969.75,-938.0,-1240.25,261.75,0
1020.25,192.0,-417.0,227.5,-1198.75,-98.75,-893.75,132.5,0
924.75,107.25,-778.0,334.25,-510.0,464.0,-530.0,-43.25,0
663.0,19.5,-1128.5,445.75,199.5,627.5,-861.25,-211.25,0
388.25,-14.5,-571.75,595.5,394.25,1093.25,-471.25,-431.5,0
36.75,-1.25,-257.5,624.0,90.5,1038.75,403.5,-588.5,0
-278.5,-55.5,1665.25,541.75,-1049.5,1024.25,1028.5,-629.75,0
-395.5,-189.75,1766.5,558.25,-1632.25,929.25,1109.75,-717.25,0
-305.25,-231.5,1490.5,616.75,-1544.75,465.0,763.0,-726.75,0
-362.75,-157.25,1105.25,581.75,-1210.0,-12.5,265.0,-625.25,0
-388.5,-109.5,1020.75,567.75,-529.5,-442.75,183.25,-663.5,0
-346.5,-162.25,1219.5,591.0,-29.5,-222.0,553.75,-835.75,0
-156.25,-166.75,1673.5,659.25,191.75,-48.0,811.5,-797.75,0
-124.25,-121.75,1836.5,803.75,748.75,114.25,1091.5,-534.25,0
-82.0,-101.25,1186.75,832.0,1258.0,90.25,1099.75,-380.0,0
296.0,-70.75,641.5,775.25,1638.0,161.5,1084.0,-265.25,0
455.75,-14.0,-38.75,744.0,2098.25,140.75,1171.25,-175.25,0
198.0,28.5,-520.5,723.5,2045.75,204.5,1203.25,-92.75,0
-85.0,42.5,-1100.75,668.25,1914.0,308.5,1177.25,-10.5,0
-124.25,78.0,-1308.0,553.25,1901.5,104.5,1158.25,46.5,0
-129.5,88.5,-1375.75,292.0,1962.25,6.75,1053.0,204.25,0
12.25,107.5,-1152.0,169.25,2051.5,-75.75,964.75,71.5,0
243.0,159.75,-495.5,348.25,1852.75,435.5,871.25,-30.75,0
229.25,155.5,-44.25,337.75,1858.25,1111.0,1054.5,-22.25,0
73.25,100.25,124.0,276.0,1547.5,1163.25,1090.25,-168.0,0
101.75,28.0,-9.25,318.25,1196.5,975.5,1006.25,-211.5,0
376.75,3.25,-397.5,305.5,1789.5,1358.0,756.25,-313.75,0
504.5,36.75,-586.0,234.25,1933.25,1404.5,251.0,-356.0,0
282.25,82.75,-616.75,135.75,1932.75,1360.0,-127.25,-354.25,0
69.25,115.5,-378.25,97.0,2004.5,1260.25,-287.0,-350.0,0
-181.75,127.25,-43.5,42.0,2029.75,772.0,20.5,-321.5,0
-326.25,100.75,-556.5,79.0,1979.0,-786.5,103.0,-258.5,0
-350.25,70.25,-404.75,167.75,1963.25,-801.5,-179.25,-199.25,0
-125.0,91.0,388.25,190.25,1963.25,-779.5,-478.75,-169.25,0
75.25,102.25,701.5,166.75,1944.25,-813.5,-737.5,-100.75,0
-469.0,93.75,566.0,253.25,1940.25,-889.5,-980.0,-136.5,0
-940.25,121.25,-175.75,377.75,1761.0,-944.25,-1308.5,-201.25,0
-1179.25,177.5,-774.25,243.75,1708.0,-980.0,-1620.0,-228.25,0
-950.75,160.75,-1004.25,106.0,1783.5,-984.5,-1694.75,-245.5,0
-575.5,59.25,-879.5,206.75,1826.75,-943.5,-1426.0,-178.0,0
-510.75,72.5,-667.75,264.75,1656.75,-683.25,-687.5,-169.5,0
-116.75,107.25,-420.5,171.5,1365.75,-409.0,-517.25,-245.25,0
225.75,25.0,189.25,110.0,304.5,-398.0,-552.75,-248.25,0
258.75,-51.0,175.0,-64.25,-148.25,-454.5,-487.0,-277.0,0
349.5,-85.25,-73.25,-126.5,-193.5,-358.75,-669.75,-216.25,0
647.25,-131.0,-64.5,90.25,-983.5,-371.75,-568.25,-140.75,0
883.5,-151.0,-62.75,217.75,-1901.25,-135.5,-546.0,-222.25,0
664.75,-19.5,-34.5,197.0,-2129.0,-15.5,-850.5,-359.25,0
482.75,118.0,-94.5,50.5,-1978.75,131.75,-906.5,-437.25,0
511.5,159.5,4.0,-55.0,-1674.25,278.0,-656.75,-398.5,0
176.25,173.5,54.75,-217.5,-1479.5,193.5,-609.0,-348.25,0
31.0,333.5,38.5,-490.0,-2219.25,-147.5,-346.0,89.25,0
-564.5,491.5,49.0,-678.75,-2363.25,-177.0,-126.75,378.0,0
-1119.0,369.5,-321.75,-1061.0,-1949.75,-420.25,-316.5,435.75,0
-1259.0,263.25,-654.25,-991.25,-1611.0,-1069.75,-510.5,410.5,0
-1086.5,293.25,-739.5,-683.0,-986.25,-1427.5,-610.0,126.0,0
-345.0,345.5,-685.0,-492.5,-1096.75,-1375.5,-907.5,-159.75,0
198.75,339.0,-369.0,-363.0,-1245.75,-1217.0,-1160.25,86.25,0
187.75,326.25,41.25,-377.5,-1209.75,-918.75,-1367.5,378.25,0
272.25,267.25,486.75,-435.5,-665.0,-950.25,-1159.5,480.5,0
241.75,59.75,829.75,-711.75,-1018.25,779.0,-1269.0,559.0,0
37.0,-743.5,1253.75,-338.25,-1391.25,1939.75,-1756.25,276.5,0
179.0,-952.0,1536.0,486.25,-1093.25,1902.5,-1584.25,-403.75,0
443.5,-846.25,1300.25,521.75,-238.0,1772.5,-1435.0,-1006.25,0
605.0,-783.25,293.25,67.0,45.75,1688.75,-1493.0,-1273.75,0
758.5,-694.5,-392.0,84.75,-1281.25,706.75,-1203.0,-1185.25,0
653.5,-523.5,-305.75,141.25,-1939.25,-548.0,-825.75,-1022.25,0
558.5,-596.5,487.5,709.5,-2219.25,-684.25,-379.75,-621.0,0
432.75,-399.0,655.25,821.75,-2085.75,-839.75,608.75,11.5,0
313.0,-532.25,763.75,869.0,-2123.75,-795.0,1292.25,197.0,0
255.5,-306.25,937.0,665.75,-2569.5,108.0,1106.75,446.0,0
180.5,-269.75,1014.5,213.25,-2379.0,805.75,659.0,561.25,0
87.0,-232.25,824.0,-218.0,-2138.0,943.0,280.5,542.0,0
-92.25,-166.25,728.25,-79.75,-2157.25,900.5,-61.75,665.0,0
-77.25,-149.75,734.5,290.0,-2000.5,643.0,422.0,652.0,0
-29.75,-55.0,143.5,206.25,-1624.75,325.75,1195.25,836.0,0
80.0,34.25,-673.0,205.25,-1082.5,271.75,1630.0,741.25,0
85.5,206.75,-1182.5,-155.75,-661.0,261.0,1755.25,628.25,0
-19.25,145.25,-1377.5,-360.0,-654.0,-293.75,1656.75,576.25,0
-206.75,64.0,-1109.5,-234.5,-743.5,-859.5,1852.0,496.75,0
-360.75,9.5,-188.5,-98.0,-879.75,-712.0,2030.75,629.25,0
-357.75,115.0,-59.0,-21.5,-1244.75,-360.25,2006.25,668.25,0
-383.25,71.5,-168.75,27.25,-1249.25,-324.75,1953.25,613.75,0
-298.25,32.5,-230.5,279.25,-892.75,-12.0,1974.0,647.0,0
-188.0,88.75,-184.25,508.25,-255.5,336.25,1560.0,494.25,0
-36.5,58.5,-149.25,375.25,309.0,665.5,905.25,275.5,0
42.5,51.5,-95.5,91.0,660.0,660.5,647.0,72.0,0
187.25,-40.75,-32.0,-272.0,846.5,235.75,431.5,-74.5,0
503.0,-97.5,135.75,-383.0,961.5,19.25,273.0,9.25,0
419.0,-106.5,200.5,-43.75,1158.0,-210.75,177.5,182.0,0
-7.0,-76.0,-92.25,-87.0,1351.75,-460.75,43.75,177.25,0
-369.5,9.5,-400.25,-272.25,1519.5,-687.25,271.0,46.5,0
-556.5,164.0,-561.75,-263.25,1646.5,-406.25,669.0,15.25,0
