0,1,2,3,4,5,6,7,label
-112.5,-187.75,363.5,-169.5,2262.0,420.75,-197.25,1145.5,1
-578.5,-456.5,382.75,-138.5,2334.5,847.0,-187.25,1027.5,1
-423.25,-493.5,181.25,-37.5,2210.25,87.75,223.75,1045.25,1
-383.5,-420.25,100.75,12.5,1947.0,-850.75,194.5,889.75,1
-276.75,-381.75,-4.5,91.0,1657.25,-981.25,-61.0,593.5,1
-202.5,-337.0,0.25,190.25,1340.75,-1055.75,-170.25,650.0,1
-335.0,-259.5,12.25,251.75,835.25,-1138.75,-678.25,680.75,1
-375.25,-403.0,-83.75,270.25,798.5,-938.0,-743.5,593.75,1
-504.5,-564.5,-114.5,380.75,590.0,-1037.25,-1188.0,497.5,1
-526.25,-469.0,-233.25,510.25,294.25,-744.25,-1886.0,479.25,1
-558.25,-343.0,-484.75,545.0,251.0,-348.75,-2275.75,537.0,1
-565.25,-272.25,-802.5,562.75,297.75,-51.75,-2627.0,548.5,1
-484.75,-231.75,-669.5,566.5,362.25,511.25,-2435.5,480.0,1
-392.25,-239.0,-295.5,573.25,-711.25,934.75,-1893.5,293.25,1
-296.25,-216.25,-111.5,565.25,-1446.75,1021.5,-1437.0,252.25,1
-233.0,-199.75,38.5,557.5,-1447.25,941.25,-1256.25,340.25,1
-138.25,-192.75,162.25,540.25,-1452.75,945.25,-978.75,346.5,1
-78.0,-191.5,305.75,509.75,-1423.75,649.5,-567.5,392.75,1
10.5,-155.0,293.0,475.0,-1481.75,398.5,156.5,437.0,1
106.0,-102.25,286.75,429.25,-1481.0,272.5,963.25,512.0,1
171.0,-112.0,368.75,385.75,-1451.0,107.75,1157.5,615.5,1
150.0,-120.5,504.75,341.25,-1426.0,-16.0,1213.5,613.5,1
82.25,-230.0,773.75,361.0,-1387.25,94.25,972.0,1048.75,1
-204.5,-510.5,988.5,520.75,-1496.0,543.0,317.0,1400.25,1
-545.75,-413.5,1286.0,584.75,-1607.25,530.5,-628.5,714.75,1
-480.25,-297.0,1437.75,536.25,-1665.25,463.25,-838.75,406.25,1
-451.5,-298.5,1321.0,478.5,-1730.0,411.75,-306.75,632.25,1
-623.25,-272.75,1243.25,460.25,-1867.0,202.75,-183.0,264.0,1
-628.5,-277.25,1001.75,415.25,-2052.0,138.75,5.75,315.75,1
-527.75,-139.25,553.0,336.25,-2007.75,106.25,526.5,338.25,1
-338.25,-123.0,23.75,210.75,-1423.5,203.0,1074.0,366.5,1
-349.5,-174.75,-355.5,195.75,-973.0,421.75,1348.0,418.5,1
-243.0,-67.5,-661.75,86.25,-781.5,491.25,1454.0,383.25,1
8.0,-52.5,-890.75,17.5,-532.5,544.0,1372.0,572.0,1
314.0,55.0,-879.25,-54.25,-199.75,597.75,1395.25,408.0,1
517.25,79.5,-886.0,-95.0,154.0,691.5,1411.25,107.25,1
462.25,166.5,-713.25,-113.75,165.5,707.75,1106.0,-95.25,1
314.0,220.0,-644.5,-166.75,64.75,679.0,725.0,16.75,1
266.75,237.25,-703.5,-178.0,-122.5,732.75,312.25,123.75,1
375.0,267.25,-682.0,-288.25,-87.5,711.75,-15.25,347.0,1
400.75,248.75,-758.25,-375.5,27.5,727.75,-453.5,336.75,1
511.25,276.5,-701.75,-400.0,-68.5,863.25,-606.25,180.5,1
660.25,275.25,-550.0,-350.0,-123.25,1028.25,-645.75,1.5,1
735.5,283.0,-734.5,-325.25,-20.5,1184.75,-660.75,-277.0,1
466.25,232.0,-1071.75,-342.5,-84.5,1417.0,-728.25,-324.75,1
156.5,193.25,-908.75,-328.5,-86.0,1577.25,-814.25,-324.5,1
-20.5,213.0,-672.5,-310.25,268.5,1611.75,-686.5,-255.75,1
-357.25,185.75,-561.75,-340.5,522.0,1548.5,-620.25,-257.75,1
-480.0,112.0,-261.75,-347.75,15.0,1313.25,-662.75,-32.25,1
-501.0,109.75,-224.25,-365.25,-797.75,1058.5,-682.25,135.5,1
-439.75,106.0,-121.25,-426.25,-1247.75,825.75,-594.75,174.5,1
-112.75,272.0,31.25,-666.5,-1372.25,501.75,-191.25,375.5,1
445.75,683.5,145.0,-759.25,-1413.5,25.5,413.25,237.75,1
662.75,646.0,286.75,-622.25,-1363.75,-409.75,893.25,-406.0,1
832.0,617.5,524.75,-567.0,-1022.5,-623.25,1492.25,-810.0,1
1081.5,651.25,779.25,-480.25,-313.25,-790.25,1614.75,-994.0,1
1250.0,609.0,694.5,-235.25,105.25,-759.0,1427.0,-908.5,1
1392.25,597.25,722.75,-127.0,435.75,-944.5,1347.5,-736.0,1
1250.5,400.25,773.0,-81.5,661.0,-906.0,1201.25,-705.0,1
999.5,139.5,880.25,-101.0,1131.25,-1014.0,1135.75,-572.25,1
826.25,-6.75,930.75,-26.0,1863.5,-1228.0,973.75,-497.5,1
561.25,-119.0,546.75,85.0,1721.0,-1202.5,897.0,-430.75,1
349.5,-118.0,210.75,211.5,1319.5,-1014.0,813.25,-654.25,1
27.5,-168.75,-161.75,257.75,670.0,-763.25,808.25,-710.25,1
-37.75,-183.0,-391.25,248.5,410.5,-739.25,851.25,-592.5,1
-117.75,-293.0,-580.25,183.25,400.75,-851.75,902.75,-641.0,1
-304.25,-299.25,-669.25,240.25,415.5,-967.25,926.25,-777.25,1
-493.75,-275.75,-641.0,460.25,500.25,-1060.5,865.25,-889.25,1
-667.5,-520.75,-622.0,575.5,805.25,-972.5,799.75,-533.5,1
-918.75,-934.75,-610.25,615.75,888.25,-775.25,677.5,104.25,1
-1293.5,-860.5,-611.0,834.25,788.25,-791.0,553.75,389.5,1
-1386.25,-734.25,-517.25,1079.75,744.5,-678.0,393.0,379.0,1
-1267.25,-726.5,-460.0,875.75,679.0,-502.75,206.25,89.25,1
-1149.75,-691.25,-443.0,588.75,613.5,-403.5,120.5,-386.25,1
-986.5,-609.75,-582.5,236.5,598.75,-421.75,368.75,-235.75,1
-713.75,-494.0,-738.75,-38.0,515.0,824.5,643.5,-148.25,1
-550.0,-390.25,-484.5,-21.5,391.5,1330.5,734.75,-314.5,1
-237.0,-343.75,-8.5,2.0,199.0,1268.75,118.0,-89.5,1
-58.25,-255.75,403.0,120.25,92.5,1118.25,-1290.0,-34.5,1
-86.25,-262.5,529.5,185.75,-10.0,939.5,-1455.5,126.0,1
-101.0,-200.75,385.0,114.5,-115.5,816.5,-1268.5,115.25,1
45.5,-132.5,10.25,-52.25,-167.25,784.5,-1479.5,41.75,1
86.0,-79.0,-338.0,-166.25,-245.5,759.75,-1658.5,127.25,1
53.5,18.25,-608.25,-307.75,-281.75,778.25,-1170.5,76.25,1
217.75,43.5,-383.25,-399.75,6.25,737.75,-457.0,50.75,1
311.0,36.75,-13.75,-413.75,721.25,78.5,-311.75,-275.75,1
305.75,76.75,-44.25,-487.5,1630.25,-744.0,-321.25,-171.25,1
135.0,80.25,66.75,-491.75,1653.75,-1047.75,-476.5,41.0,1
68.0,75.5,55.0,-478.0,1661.5,-1283.0,-716.75,-37.25,1
39.75,50.5,145.75,-431.5,1677.0,-1285.5,-865.5,-41.75,1
198.0,28.5,385.0,-372.5,1697.75,-1283.25,-884.0,-101.25,1
424.5,8.0,688.75,-299.0,1711.25,-1291.0,-788.75,6.0,1
250.5,36.0,1038.25,-282.5,1727.75,-1303.25,-783.0,16.5,1
-58.5,95.25,1407.75,-207.25,1746.5,-1327.0,-573.0,23.25,1
-205.25,111.0,1656.5,-211.0,1572.75,-1335.75,-236.75,59.5,1
-186.0,96.75,1361.0,-277.75,1145.5,-1451.25,-223.5,50.25,1
-24.0,38.5,776.25,-272.25,1051.0,-1674.5,-450.5,113.0,1
208.25,60.75,-216.25,-214.0,1011.0,-1824.25,-696.25,71.0,1
217.25,89.25,-873.75,-171.5,954.75,-1858.5,-851.75,-57.75,1
188.0,110.75,-997.75,-210.5,728.75,-520.5,-645.25,-98.5,1
30.75,130.25,-876.75,-168.5,486.0,300.5,-150.0,-52.75,1
-111.5,159.0,-828.25,-173.0,419.25,464.0,75.0,-72.5,1
-109.0,243.5,-764.25,-204.25,313.5,508.5,-273.25,-125.75,1
-244.25,210.25,-422.75,-230.5,103.75,427.75,-385.5,-400.0,1
-144.25,164.25,-126.0,-271.75,-164.0,421.0,112.0,-897.5,1
5.75,187.25,3.25,-228.75,-160.75,582.5,245.0,-1178.5,1
260.75,139.25,148.5,-160.0,-153.0,948.25,35.0,-1101.75,1
488.75,143.0,317.25,-117.0,-132.0,1176.5,-286.25,-812.25,1
308.25,222.5,530.75,-97.0,-110.5,1128.25,-694.75,-530.5,1
264.75,328.0,721.25,-68.25,-80.0,1322.0,-1182.75,-44.75,1
169.5,478.5,867.0,-50.0,-45.75,1543.5,-723.75,280.5,1
12.25,510.25,998.5,-62.25,-35.5,1450.5,628.25,506.0,1
-123.0,337.0,1031.75,-17.0,-37.0,1379.0,1538.0,599.5,1
-383.0,236.0,935.5,93.5,-54.75,1057.5,1936.25,627.0,1
-673.0,130.0,795.75,143.25,-61.5,309.25,1559.5,927.25,1
-926.5,-19.0,612.25,129.75,-42.0,99.25,943.25,736.0,1
-962.75,-39.25,227.5,84.5,-12.0,123.5,310.0,645.5,1
-957.75,-142.25,-213.5,91.5,4.75,-973.25,-162.75,991.75,1
-687.75,-163.5,-624.0,171.75,7.0,-1870.0,-179.0,1440.25,1
-193.5,-1.75,-1129.0,148.75,-362.25,-1774.75,93.25,1598.5,1
276.25,218.0,-1294.0,72.5,-622.0,-595.75,358.5,1506.75,1
724.75,305.75,-1285.75,-12.0,-871.25,200.0,400.5,1860.0,1
996.75,307.0,-1279.5,-142.25,-1626.0,216.5,615.25,1697.5,1
1014.75,263.5,-1030.5,-206.25,-1880.0,222.0,937.0,1449.0,1
1037.75,125.75,155.0,-238.5,-1855.25,256.5,909.0,1525.5,1
1028.5,14.25,556.5,-236.75,-1812.25,269.0,617.25,1522.5,1
1048.5,-165.75,431.5,-169.25,-1793.5,102.25,324.75,1384.5,1
741.75,-282.5,351.0,-90.75,-1784.5,-235.25,-29.5,772.25,1
552.75,-228.25,354.25,-57.25,-1773.25,-523.0,108.75,-150.75,1
322.5,-123.25,505.5,-54.75,-1785.0,-630.75,835.75,-442.5,1
19.0,-59.75,743.75,-14.25,-1810.75,-672.0,1349.25,-314.75,1
-113.0,96.75,792.75,13.5,-1850.0,-706.25,1767.25,-255.75,1
-290.5,177.25,830.0,-17.0,-1869.75,-806.0,1907.0,18.25,1
-433.25,116.5,876.0,-34.5,-1765.25,-253.75,1384.25,1339.75,1
-498.25,48.0,911.0,-30.25,-1226.5,340.0,587.0,1793.0,1
-590.75,-31.0,982.0,6.25,-1088.5,771.5,38.25,1988.5,1
-579.5,-26.0,914.25,64.75,-1211.75,756.0,101.5,2012.5,1
-529.75,-83.0,395.5,92.5,-1391.0,936.25,84.25,1930.5,1
-374.75,-137.25,-264.25,130.25,-1204.5,793.0,134.0,500.75,1
-211.75,-153.5,-651.5,161.75,-506.25,727.0,554.0,249.75,1
41.0,-44.75,-877.25,200.0,59.25,579.0,773.0,-182.5,1
120.25,102.5,-956.25,267.25,53.5,-7.25,1278.0,-277.75,1
-145.5,175.5,-1017.0,208.0,49.25,-555.25,1726.25,-192.75,1
-163.0,255.25,-1023.75,55.5,51.25,-687.5,2095.5,-482.0,1
-236.5,217.75,-930.25,12.75,33.5,-402.5,2635.75,-369.0,1
-551.75,171.5,-921.5,159.75,25.5,854.0,2824.5,-308.5,1
-697.25,219.25,-920.5,369.0,22.5,1085.0,3005.5,-551.75,1
-902.25,290.5,-815.25,376.5,26.5,1055.0,2870.5,-822.25,1
-1129.5,185.5,-667.5,135.75,24.5,709.5,2489.5,-908.0,1
-1078.25,185.75,-372.75,-285.5,-223.25,-1282.0,2516.5,-688.25,1
-689.5,541.25,-64.5,-680.75,-647.25,-1720.75,2203.0,-651.75,1
-343.0,672.75,-91.5,-683.75,-1324.75,-1744.25,1635.25,-1264.25,1
277.25,483.25,-285.25,-522.5,-2461.25,-1679.5,672.0,-1881.25,1
1078.5,282.5,-345.75,-503.0,-2483.5,-1242.5,-510.25,-1880.25,1
1525.5,207.5,-404.75,-493.5,-2396.0,249.75,-1352.25,-1650.0,1
1410.25,96.25,-415.25,-482.5,-2342.5,253.75,-2014.0,-1521.0,1
1306.75,61.75,-227.0,-297.25,-2104.75,461.75,-2644.0,-1302.75,1
989.5,-72.0,-63.75,-92.25,-1929.5,634.25,-2705.25,-482.0,1
893.25,-23.25,87.0,-47.25,177.75,743.25,-1961.25,176.75,1
381.5,-81.0,75.5,1.75,357.25,884.75,-1008.0,251.25,1
205.0,-154.75,-39.5,115.0,414.25,880.25,-759.25,209.0,1
234.75,-80.75,-90.25,245.5,878.0,947.75,-1182.25,197.25,1
113.25,-12.75,-117.25,270.25,1610.75,984.0,-2368.75,379.75,1
159.75,-111.75,-224.5,232.25,2412.75,1079.75,-2850.25,391.0,1
390.75,-156.5,-387.25,236.0,1922.25,1016.0,-2992.5,118.0,1
151.25,-244.0,-210.25,521.5,723.75,1050.5,-1293.5,-110.5,1
-966.25,-848.5,311.0,634.25,836.75,952.75,-703.25,112.25,1
-1014.25,-795.25,516.25,540.75,446.0,528.0,16.5,108.0,1
-974.25,-707.5,425.75,653.25,-90.25,384.0,242.75,30.0,1
-1246.75,-804.0,585.5,903.25,-270.75,-806.25,291.5,56.25,1
-1230.75,-603.0,570.0,814.5,-252.0,-1633.75,538.25,40.5,1
-1227.0,-503.5,556.0,770.75,-381.5,22.0,-490.25,99.25,1
-1194.75,-484.75,513.5,590.5,-620.25,-62.25,601.0,56.0,1
-1138.25,-438.5,400.25,547.5,-850.0,-90.0,1246.75,-245.5,1
-1051.0,-335.5,389.25,502.75,-1016.0,4.25,1060.5,-1996.75,1
-912.25,-122.0,349.5,426.0,-1062.25,50.5,765.5,-2024.5,1
-888.5,-115.5,331.25,390.5,983.0,102.5,361.75,-2064.25,1
-843.25,-105.25,305.75,257.5,1003.0,186.5,265.75,-2070.5,1
-798.25,-95.0,338.0,258.0,1110.75,203.0,607.25,-2154.0,1
-658.75,-31.75,252.25,232.25,1240.25,-74.5,177.25,-1399.0,1
-531.25,-19.0,187.5,235.5,1549.0,-310.75,84.5,-884.25,1
-402.75,-35.5,122.5,179.0,2250.0,-318.25,118.25,-251.25,1
-304.75,27.5,118.75,85.0,2501.0,-313.75,78.75,292.0,1
-220.0,145.5,112.25,73.5,2581.5,-374.75,115.5,1104.0,1
-104.0,131.0,71.5,94.25,2725.25,-571.25,32.75,1203.0,1
-19.75,64.75,-64.0,25.25,1980.0,-480.75,24.0,1123.0,1
33.5,82.25,-313.75,26.0,-18.75,-283.25,66.0,1246.75,1
0.25,95.0,-479.0,-15.5,454.75,-617.5,180.0,1316.25,1
-11.75,214.5,-587.75,-106.25,149.25,-1063.0,237.25,1553.25,1
-55.0,258.0,-376.75,-93.75,-596.5,-1180.75,187.75,1748.0,1
-95.5,246.0,-113.0,-106.25,-1394.75,-1225.75,105.0,1908.25,1
-98.75,228.5,3.75,-193.0,-1436.75,-1153.0,106.75,1772.5,1
-35.25,188.0,110.25,-158.75,-932.75,-1110.5,266.5,1483.25,1
15.5,164.5,293.25,24.25,-391.0,-1133.5,-88.25,1603.0,1
71.5,165.5,348.75,-254.0,-917.0,-800.5,-416.25,1960.0,1
239.0,171.5,419.0,-494.25,-1804.0,-523.0,-948.75,1828.25,1
372.0,67.5,543.75,-515.0,-1549.5,-475.75,-1485.75,1796.0,1
442.0,-68.0,486.25,-610.5,-1480.0,-363.0,-1900.0,1756.0,1
421.0,-148.75,293.25,-656.5,-1127.5,-46.25,-2059.75,1809.25,1
477.0,-81.25,21.75,-679.75,302.0,251.75,-2116.0,1489.0,1
570.75,-4.5,-79.0,-577.0,1961.0,485.25,-2049.5,337.0,1
582.25,22.25,-182.75,-632.0,1523.5,602.25,-1841.25,-244.0,1
567.0,85.25,-118.0,-596.5,1379.0,600.0,-1805.0,-323.75,1
559.0,178.75,-45.5,-490.75,1597.5,576.25,-1880.0,-213.5,1
544.0,257.25,-108.0,-474.25,1789.0,555.5,-1903.5,-120.75,1
466.25,265.75,-79.75,-370.5,2593.5,617.0,-1830.75,403.75,1
462.5,262.25,-87.25,-395.25,2750.5,664.25,-1634.5,588.5,1
501.0,259.5,-5.0,-432.75,2686.5,582.25,-1740.25,749.0,1
581.5,298.5,104.75,-255.25,2529.5,524.75,-1941.25,322.5,1
638.0,318.75,123.0,-116.5,2226.0,475.5,-1943.25,253.5,1
675.0,280.0,-16.5,-238.75,2260.75,372.75,-1307.0,245.25,1
702.0,302.0,-285.5,-559.5,743.5,288.5,-181.0,139.0,1
699.75,306.5,-546.25,-980.0,7.75,161.75,51.75,109.25,1
657.25,257.5,-765.5,-1047.0,-518.0,-9.0,83.75,-307.25,1
580.25,288.5,-843.75,-855.0,-387.0,24.25,33.75,-296.5,1
496.25,83.0,-798.0,-408.0,592.75,434.0,-82.5,241.75,1
288.25,-258.0,-617.0,343.5,396.0,676.0,-171.75,594.25,1
221.75,-346.25,-467.25,519.25,-62.25,509.25,-93.5,897.25,1
392.5,-266.5,-427.5,337.75,-217.5,351.5,-20.25,625.0,1
347.25,-265.75,-471.5,41.75,-824.25,388.5,25.5,240.5,1
364.0,-113.75,-508.5,-352.75,-1244.5,357.75,1.5,-25.75,1
125.5,-232.75,-167.25,110.75,-1164.5,441.25,-136.75,-559.25,1
-230.25,-339.5,152.5,278.0,-1928.25,557.0,-56.25,-1107.25,1
129.25,153.25,243.0,-109.75,-2520.75,485.75,20.25,-1559.75,1
226.75,298.25,251.25,-77.75,-2650.75,351.0,241.25,-1615.75,1
275.25,632.5,-28.75,-220.75,-864.75,116.5,620.75,-934.75,1
331.25,604.75,-2.5,-47.5,-31.5,151.0,544.75,-591.0,1
204.5,490.0,256.5,-48.5,541.75,303.75,330.25,-1244.75,1
-48.25,499.5,410.75,-40.25,1503.0,281.75,747.5,-2178.0,1
-536.0,166.75,591.75,30.5,2060.75,81.0,947.5,-2296.5,1
-616.5,248.25,632.75,-128.5,1729.25,-962.5,691.25,-2309.75,1
-647.0,125.5,669.75,-18.5,2354.25,-1237.25,1709.75,-2380.25,1
-506.0,175.25,597.5,-213.0,2294.0,-1124.5,1862.25,-1993.25,1
-366.25,184.75,492.75,-104.25,2896.0,-985.75,608.25,-1407.25,1
-385.75,113.25,382.25,287.25,2881.0,-843.0,-136.0,-1124.25,1
-327.25,106.5,317.5,636.5,2645.0,-761.0,-126.25,-1201.0,1
-393.5,36.0,302.25,622.25,2440.75,-667.75,-119.5,-1288.5,1
-417.5,-35.5,202.75,444.75,2291.75,-573.75,-104.0,-2013.5,1
-468.5,-262.75,117.5,374.75,997.25,-573.0,-83.0,-2379.25,1
-507.25,-359.25,13.0,483.25,1028.25,-775.25,-73.75,-2165.25,1
-392.25,-478.25,-37.5,582.75,1129.75,-753.0,-84.75,-2796.0,1
-175.0,-557.0,-56.25,567.0,1483.0,-699.5,-104.5,-2695.5,1
-57.25,-590.5,-39.75,553.75,1866.25,-663.25,-196.5,-1842.5,1
43.25,-589.25,-109.75,229.5,1842.5,-473.25,-332.0,-858.0,1
-12.25,-583.25,-249.75,28.5,1769.5,-513.75,-247.0,194.0,1
29.75,-541.25,-368.75,-161.75,1535.75,1381.75,-95.75,150.75,1
35.5,-453.25,-571.75,-104.0,1329.75,1428.5,-23.75,57.25,1
-85.75,-376.25,-961.0,396.5,1122.0,1338.0,25.0,72.0,1
-112.0,-239.25,-965.0,456.75,1098.5,1430.0,30.25,203.75,1
-91.75,-188.5,-918.0,880.5,1261.0,1710.75,521.0,556.5,1
-69.25,-186.5,-270.75,959.5,1325.5,1739.0,1183.75,148.75,1
-111.25,-213.5,433.5,246.75,1288.25,-319.25,1632.0,139.0,1
-99.75,-232.75,952.25,-71.5,1117.75,-280.25,2020.25,746.25,1
-81.5,-231.5,1013.25,-84.0,1202.5,-276.25,2002.5,1090.0,1
-49.0,-190.25,991.75,-43.5,1288.5,-230.75,826.25,561.5,1
-36.0,-160.25,998.0,-369.25,1270.0,-295.5,-11.5,-290.5,1
6.75,-135.75,999.75,-508.5,1306.0,-688.5,-28.25,-579.0,1
63.0,-57.25,633.75,-247.25,1119.25,1020.0,-54.5,-280.25,1
85.5,71.5,216.0,-625.0,675.5,1007.5,-339.5,761.75,1
29.75,213.75,139.5,-1078.5,175.0,879.75,-915.25,1534.0,1
-113.5,321.25,230.5,-963.0,-423.75,938.5,-1453.75,1439.5,1
-150.0,350.75,90.0,-12.25,-1010.25,1492.5,-1163.0,1104.0,1
-124.5,189.75,-131.25,244.75,-1555.25,1384.0,-4.75,736.0,1
-84.25,18.75,-262.25,658.5,-2326.75,-177.25,14.25,369.0,1
-72.25,-102.25,-274.5,1754.75,-2057.25,-302.75,42.0,538.5,1
-39.25,-243.75,-178.0,1975.0,-1847.0,1381.75,104.75,571.0,1
-57.5,-561.75,-88.0,1737.25,-1473.5,1635.75,80.25,296.0,1
-254.75,-785.75,-1.0,1198.5,-1266.75,1766.25,-138.25,133.5,1
-515.5,-713.25,105.25,944.75,-1612.25,1815.25,-441.5,-564.0,1
-367.5,-519.5,177.75,34.5,-1590.5,1934.0,-518.75,-1434.75,1
-356.0,-385.25,29.0,-790.25,-1742.25,1063.0,-501.75,-2105.0,1
-520.0,-343.0,-284.0,-1080.75,-2055.75,362.0,-478.25,-2362.0,1
-544.0,-316.25,-750.0,-1375.25,-1831.5,594.5,-300.0,-1145.25,1
-487.5,-193.5,-958.25,-1672.0,-1820.25,605.25,-1134.0,-793.5,1
-415.0,-259.75,-1071.75,-1647.5,-1624.75,926.25,-1791.0,-473.0,1
-380.75,-356.25,-1162.0,-1452.25,-1519.75,1391.75,-1345.5,-26.5,1
-289.0,-424.25,-1147.25,-1301.25,-1501.25,1217.75,-1012.5,415.5,1
-120.75,-397.25,-619.5,-667.0,-1513.25,702.75,-574.0,87.25,1
27.75,-386.25,234.25,-469.5,-1312.0,-131.25,-120.0,-407.75,1
121.0,-381.5,833.0,-462.5,-973.5,-121.75,106.25,-213.0,1
19.5,-307.5,854.75,-25.5,-1100.75,-150.75,137.5,-902.0,1
-95.5,-128.0,831.25,-117.75,-1106.0,-407.0,108.0,-934.5,1
-53.5,57.25,756.0,-330.5,-1340.0,-442.25,76.25,-896.5,1
136.25,144.5,706.25,-313.5,-1908.75,-505.25,78.0,-926.25,1
300.75,231.0,693.0,-253.25,-1765.0,-189.25,103.25,-902.75,1
417.0,213.25,733.0,-161.75,-1637.5,-357.75,120.5,-540.5,1
392.75,340.75,614.75,-116.75,-1596.0,-941.75,125.75,661.0,1
351.5,456.75,429.25,387.25,-1428.5,-978.25,146.25,1311.5,1
288.75,494.25,335.5,689.75,-1250.75,-1167.5,1314.75,691.25,1
199.25,518.25,167.0,917.75,-720.25,-1044.0,2168.25,448.0,1
144.25,512.25,86.25,939.0,-409.25,-852.5,2218.0,990.5,1
122.0,496.5,-154.75,271.0,-379.75,-911.75,2250.25,1070.25,1
116.25,434.75,-308.0,-172.0,-831.25,-1020.0,2237.0,1071.0,1
58.0,479.0,-312.5,-611.25,-1236.25,-1290.25,2207.25,1304.25,1
43.0,543.25,-233.75,-390.0,-1514.75,-1610.75,2127.25,312.25,1
13.25,583.0,-336.75,-269.25,-1658.5,-1475.25,2037.5,-83.75,1
-26.25,551.25,-570.5,-406.75,-1510.25,-1388.5,2051.25,-280.0,1
-45.25,544.25,-811.75,-444.25,-1429.75,-1205.75,2172.5,-738.5,1
-64.75,559.5,-1106.0,-746.75,-1125.25,-862.25,2191.75,-285.75,1
-73.75,555.5,-910.5,-409.25,-1071.25,-1048.25,2166.5,652.5,1
-38.25,526.75,-744.0,1100.0,-1220.25,-1276.25,2163.0,1027.5,1
-1.75,438.25,-822.0,1976.25,-1513.5,-1098.0,2154.5,558.25,1
40.5,309.0,-728.0,1994.5,-1822.0,-622.25,2059.5,-7.5,1
108.75,195.5,-14.0,1976.5,-2053.0,-887.25,1850.75,-152.25,1
120.5,144.0,531.5,1139.0,-2058.25,-1019.0,1736.75,277.5,1
126.75,12.25,547.75,-50.5,-1622.0,-716.75,1368.75,629.0,1
104.75,8.25,423.75,-1144.75,-1259.25,-871.5,608.75,1008.5,1
74.75,124.75,190.75,-2068.5,-919.75,-864.25,86.25,1370.75,1
82.75,127.75,300.25,-2077.25,61.75,-1040.25,70.75,1490.0,1
134.25,58.75,640.0,-2111.75,120.0,-1018.25,113.75,1470.25,1
165.5,77.0,717.0,-1825.75,156.5,-1074.0,178.5,1558.5,1
120.25,53.5,557.0,-1603.75,203.25,-1144.5,196.25,1637.25,1
88.25,-85.5,288.75,-1068.0,236.0,-1292.5,178.5,1651.5,1
65.0,-238.75,83.5,-481.25,370.5,-1211.0,163.25,1652.75,1
49.0,-379.5,146.5,-21.25,324.75,-1085.0,125.5,1506.75,1
76.25,-446.0,116.5,14.75,343.25,-1073.5,123.0,1569.5,1
52.0,-405.75,-103.5,-479.75,378.25,-1132.25,69.25,1486.0,1
-155.75,-226.75,-321.75,-214.0,474.25,-1223.5,24.25,1036.25,1
-501.0,-44.25,-564.5,555.0,946.75,-1217.0,-34.5,946.0,1
-311.0,-5.5,-707.5,628.0,1392.5,-1254.25,274.0,864.25,1
76.25,3.25,-595.0,708.0,1756.5,-1073.5,645.0,609.75,1
188.75,14.0,-496.25,842.0,1859.75,-1057.5,858.5,345.0,1
439.5,14.0,-582.25,822.25,1666.0,-1067.5,1298.0,42.75,1
465.25,76.5,-480.5,868.0,1996.75,-934.75,1067.25,-116.0,1
336.0,115.5,-430.5,633.5,2312.25,-815.75,869.0,-373.25,1
122.0,111.0,-518.0,1039.5,2290.0,-858.0,381.0,-489.75,1
-27.5,91.0,-796.75,1320.75,2252.75,-1107.5,342.5,-465.25,1
106.75,104.75,-1141.0,1334.75,2227.25,-1422.75,262.0,-575.5,1
179.25,137.25,-1207.25,989.5,2217.25,-1747.0,317.0,-479.25,1
271.5,107.0,-164.75,647.0,2207.25,-1870.75,888.5,-245.75,1
245.0,70.0,789.75,350.75,2198.75,-1865.75,1177.5,10.0,1
130.5,47.25,898.5,-339.75,2189.5,-1517.5,1193.0,159.0,1
41.75,45.75,1041.5,-673.5,2136.75,-1239.5,1471.0,-16.25,1
-112.75,32.75,1078.25,-861.25,1907.0,-1342.5,1576.25,-318.75,1
-153.0,12.5,1060.25,-889.0,1620.0,-1294.25,951.75,-411.25,1
-162.5,15.75,1043.75,-601.75,1448.75,-1211.0,-275.0,-596.0,1
-177.5,17.5,998.75,-427.5,1284.5,-942.75,-685.75,-786.25,1
-148.0,43.5,240.0,-192.75,946.75,-602.0,-336.5,-552.75,1
-120.75,20.25,80.75,-23.0,579.75,-91.5,226.25,-97.25,1
-113.5,-41.0,892.5,44.0,316.75,479.75,769.75,250.75,1
-92.0,-96.5,840.0,348.0,118.75,1120.0,601.75,373.0,1
-79.0,-138.5,316.25,450.5,136.5,1888.75,321.5,583.0,1
-117.75,-197.0,-166.75,276.75,161.0,2105.0,-114.0,616.5,1
-151.0,-249.5,-308.5,208.0,189.0,2042.75,-875.25,478.5,1
-172.5,-172.0,-355.5,68.75,217.5,2016.5,-1619.75,458.25,1
-164.25,-118.0,-310.5,-47.0,247.75,1873.75,-2177.0,548.75,1
-122.25,-69.75,-173.75,-11.0,907.0,1532.25,-2216.75,702.75,1
-59.5,-17.25,-185.75,-49.0,1843.5,1020.75,-2121.0,672.5,1
-44.5,-5.0,-235.75,-53.5,932.25,602.25,-1992.75,660.0,1
-55.25,-31.75,-219.75,-108.75,269.25,679.25,-1780.75,632.75,1
-31.25,-85.0,-256.5,-47.25,266.5,734.5,-1586.0,479.25,1
0.0,-91.25,-447.5,146.5,226.0,724.25,-1137.75,407.5,1
16.5,-104.5,-588.75,201.5,197.25,873.0,-789.5,480.5,1
-12.75,-96.75,-595.0,212.25,167.25,1448.5,-525.0,451.25,1
-65.75,-53.0,-295.0,269.5,85.0,1741.75,-65.0,318.25,1
-77.25,55.25,-139.0,305.0,37.5,1437.25,137.0,115.5,1
-43.0,127.25,-143.25,310.0,56.0,1166.25,364.5,-11.75,1
-26.25,105.25,-46.25,294.5,19.5,847.5,307.5,84.0,1
-19.75,27.5,-25.25,247.75,-61.75,664.25,119.5,-64.0,1
13.25,3.75,-11.25,147.25,-101.5,548.0,-67.75,-302.25,1
62.25,4.5,1.5,72.5,-77.75,631.75,-380.0,-382.0,1
62.75,-146.5,120.5,63.25,-55.0,659.25,-563.25,-558.0,1
6.25,-194.75,133.5,-71.0,-31.75,792.0,-537.25,-562.0,1
-57.25,-144.75,65.25,-167.25,-580.75,933.0,-230.5,-579.75,1
-111.0,-84.0,53.75,-227.75,-989.75,1368.25,-546.5,-740.0,1
-81.75,-36.75,27.25,-352.5,-1168.75,1515.75,-572.5,-1081.0,1
-136.5,-74.5,58.0,-309.5,-1475.5,1266.0,-49.25,-1348.75,1
-338.0,-73.5,123.25,-170.5,-1848.5,1008.25,250.5,-1434.5,1
-391.0,-56.25,103.5,-117.75,-2097.0,345.75,72.0,-1610.5,1
-236.5,-43.0,20.5,-125.0,-2136.0,-656.5,-534.25,-1635.5,1
-136.5,10.5,4.0,-83.25,-1955.25,-1016.25,-1464.25,-1702.5,1
-241.75,35.25,100.0,165.25,-1837.0,-852.25,-1853.5,-1675.0,1
-350.5,-9.0,189.0,277.5,-1923.25,-649.0,-1820.25,-1446.25,1
-168.25,22.25,49.0,2.5,-1904.75,-46.75,-1477.5,-1390.5,1
-138.0,79.0,32.5,-164.75,-1876.25,585.5,-1586.25,-1423.75,1
-266.5,29.75,108.0,-95.75,-1989.75,945.0,-1636.5,-1424.0,1
-236.75,-67.25,61.0,46.25,-2032.75,1137.0,-1408.25,-1357.25,1
-184.5,-145.5,-42.0,52.75,-2167.0,1052.75,-1356.5,-1466.5,1
-37.0,-155.0,-189.5,94.0,-2341.25,1236.5,-1800.75,-1577.5,1
64.25,-151.25,-457.25,98.0,-2416.25,1009.75,-2204.5,-1442.5,1
134.0,-153.0,-613.75,-128.0,-2297.5,956.75,-2164.5,-1122.75,1
152.5,-123.25,-289.75,-196.0,-2088.5,1040.75,-1617.25,-955.5,1
82.5,-69.75,-24.5,-224.25,-1624.25,975.0,-1169.0,-924.25,1
-237.25,-66.25,149.5,-292.5,-1367.0,816.0,-858.5,-1003.5,1
-558.5,-9.25,120.25,-246.75,-1155.0,645.0,-110.25,-1121.0,1
-774.75,109.75,23.25,-161.25,-1174.25,-50.25,365.5,-1158.5,1
-501.25,192.25,16.75,-155.5,-1255.25,-1242.25,307.75,-1002.75,1
320.25,215.5,-122.75,-110.5,-873.75,-1713.25,222.25,-713.25,1
836.75,161.0,35.5,-75.75,-619.0,-1646.25,-11.75,-511.75,1
984.75,131.0,236.0,-71.0,-356.25,-1713.75,-110.5,-195.0,1
968.25,105.75,337.25,-69.75,-166.75,-1659.0,724.0,-99.75,1
1073.0,54.5,432.5,-86.0,-107.25,-1199.0,1220.75,-210.0,1
1104.75,72.5,400.5,-119.25,-124.5,-737.5,1296.75,-77.75,1
1376.5,369.5,246.0,-509.25,-420.5,-1136.75,1438.25,164.0,1
1754.5,933.25,-171.75,-589.5,-533.0,-1344.75,1573.0,38.5,1
1470.0,863.0,-816.5,-472.25,124.0,-1704.25,1655.0,-365.25,1
1045.0,652.5,-984.25,-497.75,792.5,-2245.5,1979.25,-476.75,1
755.25,656.75,-481.75,-483.75,1099.5,-2643.75,1888.0,-816.25,1
481.75,622.5,359.5,-369.0,1056.5,-2697.75,1968.5,-1427.5,1
192.75,548.75,912.25,-318.5,776.5,-2761.75,2016.75,-1920.75,1
-83.25,445.5,1025.75,-89.75,544.0,-2257.25,1672.25,-1913.75,1
-438.5,314.5,910.25,31.75,228.5,-1869.0,1154.25,-1463.75,1
-686.5,224.5,620.5,172.75,161.75,-1669.0,799.0,-1022.5,1
-796.5,114.25,245.0,242.75,220.0,-1137.75,680.75,-318.5,1
-920.75,66.25,-105.0,262.0,434.5,-815.75,570.75,339.5,1
-852.75,6.25,-371.5,265.75,727.75,-669.75,672.5,823.0,1
-668.0,-9.5,-715.5,340.5,882.25,-435.75,215.25,1035.0,1
-850.25,-112.0,-761.5,396.75,1160.75,-259.0,330.0,1197.25,1
-1184.75,-154.25,-549.25,403.0,1574.0,-494.25,415.0,1310.75,1
-1607.0,-243.75,-422.25,388.0,2171.75,-713.75,926.75,1204.25,1
-1557.25,-353.75,-196.5,326.0,2439.25,-682.0,1345.75,1141.25,1
-1329.5,-446.5,30.25,402.5,2471.75,-231.25,1739.75,1071.0,1
-1051.75,-498.0,130.75,457.5,2462.0,181.5,1912.75,1079.0,1
-885.75,-606.75,223.75,481.75,402.25,390.25,1699.5,1000.25,1
-515.25,-714.25,355.75,496.25,-376.25,441.5,1551.75,715.0,1
-356.5,-580.5,401.25,449.25,-1403.75,312.0,1676.25,262.5,1
-311.5,-469.0,245.5,419.75,-1492.5,405.75,1789.25,-45.25,1
-244.25,-407.0,146.75,386.25,-193.75,909.75,1794.25,177.5,1
481.0,-320.5,11.5,217.5,1424.5,1237.0,1779.5,777.25,1
885.0,-252.0,-103.0,92.75,2494.5,1297.0,1617.0,1120.25,1
914.75,-244.75,7.25,8.0,1960.75,1126.5,1936.0,1245.0,1
950.5,-185.75,39.75,-100.0,1443.25,1116.75,2003.0,1077.25,1
972.25,-116.5,90.0,3.5,677.75,1113.75,1430.0,916.75,1
752.25,-80.0,119.75,142.75,117.0,1091.75,1355.25,800.75,1
-296.75,-91.75,125.0,209.75,10.75,1110.0,1511.5,665.25,1
-1116.5,-135.75,92.5,206.5,477.5,1163.25,1605.25,518.5,1
-1085.25,-119.5,-34.5,176.0,969.25,1213.25,1800.75,224.75,1
-1035.75,-112.0,-193.5,200.5,1291.75,1110.25,1743.75,74.25,1
-708.25,-89.0,-489.25,158.5,1165.75,1239.75,1942.0,338.5,1
425.5,-81.75,-917.5,52.5,1022.75,1207.75,2043.25,408.25,1
866.0,-116.0,-886.25,-29.5,1425.25,394.5,1591.5,331.5,1
883.75,-162.0,-182.5,4.0,1755.25,-199.75,761.25,220.75,1
1021.25,-196.0,170.5,2.25,1984.5,-33.75,429.0,283.25,1
1108.5,-109.75,435.0,-71.75,2071.75,821.5,237.75,82.75,1
1078.75,-13.25,437.0,-45.5,2044.5,1782.25,46.75,-773.0,1
441.0,-48.75,160.75,-32.75,2030.5,1884.5,-197.0,-1011.0,1
-290.75,-79.5,230.5,-38.75,2030.75,1428.0,-379.75,-813.25,1
-677.0,-67.25,170.25,-136.25,1646.5,1228.25,-419.75,-828.75,1
-1034.25,-83.75,206.25,-209.0,1359.5,466.0,-387.25,-543.75,1
-1170.75,-87.0,325.0,-93.5,1337.5,-660.0,-197.5,-163.75,1
-1191.5,-75.75,337.0,-113.25,1082.5,-1300.25,-345.5,358.0,1
-1072.0,-58.75,270.0,-151.25,738.25,-1373.0,-960.0,267.75,1
-736.5,-101.5,233.5,-144.5,498.25,-1402.75,-1026.0,138.0,1
-269.75,-110.0,176.0,-228.5,341.5,-1275.25,-1000.25,1.0,1
52.0,-55.5,58.5,-283.25,224.75,-695.25,-1440.25,-19.75,1
365.25,-33.25,-8.25,-299.75,264.5,-180.25,-2074.75,50.75,1
299.25,-58.75,-57.75,-182.75,384.0,-46.75,-2166.75,313.0,1
35.75,-120.25,-115.5,-109.75,645.5,-248.0,-2229.75,590.0,1
-258.5,-160.5,-277.75,-239.0,1069.0,-415.5,-1516.0,680.0,1
-606.75,-101.75,-421.0,-346.5,1211.25,-696.25,-1452.75,703.25,1
-537.0,9.0,-539.0,-268.75,993.5,-1148.0,-1511.75,619.75,1
-586.5,92.75,-654.5,67.25,742.75,-1068.5,-1732.0,710.0,1
-595.0,136.25,-655.25,293.0,670.25,-833.5,-1570.0,1027.75,1
-463.5,95.5,-545.25,331.75,765.0,-635.25,-1340.5,-155.0,1
303.25,57.0,-396.25,442.75,731.25,-870.0,-1759.5,-595.25,1
918.5,-60.5,-251.75,573.5,743.25,-887.5,-2194.75,-435.75,1
584.0,-306.75,-46.5,673.0,631.25,-338.0,-2088.5,-163.0,1
264.5,-429.75,287.75,771.0,108.0,145.0,-2092.5,-21.5,1
426.25,-398.0,547.5,715.0,-229.0,257.5,-1990.5,98.5,1
785.75,-162.25,407.5,258.25,-509.0,-157.5,-1765.5,-592.0,1
759.5,153.25,271.0,-25.75,-867.25,-3.5,-1844.5,-1239.75,1
89.25,264.0,250.0,-310.25,-941.75,647.75,-1704.0,-1854.75,1
-589.5,494.75,25.75,-924.25,-1447.25,1375.0,-1534.0,-2070.75,1
-99.25,1080.75,-206.75,-1320.5,-1484.25,1778.5,-1275.75,-1734.0,1
-341.5,879.0,-292.75,-1216.75,-1200.5,1852.75,-1089.25,-1617.25,1
-404.5,660.75,-242.25,-980.5,-1235.5,1824.0,-809.25,-1739.5,1
129.0,579.75,-157.75,-701.25,-571.25,1850.75,-758.25,-1951.75,1
-201.0,51.75,-100.0,-275.25,84.5,1154.75,-1226.25,-1528.25,1
-417.0,-241.25,-46.75,35.75,256.0,314.75,-1723.25,-615.25,1
-589.25,-686.0,205.5,336.5,197.5,552.5,-1535.5,-309.0,1
-581.5,-660.0,361.0,193.75,269.25,226.75,-1276.5,-111.25,1
-518.75,-522.0,411.75,386.0,856.25,-539.5,-1065.5,-73.0,1
-627.25,-571.25,481.75,511.75,565.5,-1103.75,-1.75,-30.0,1
-695.5,-505.75,354.75,509.75,-134.25,-1546.5,1348.5,-157.0,1
-391.0,-477.25,259.0,617.0,-550.0,-1511.75,1660.0,-544.75,1
-147.0,-251.75,287.75,770.25,-849.25,-1065.25,1760.5,-169.75,1
-124.25,-106.0,200.25,738.5,-880.5,-626.25,1832.25,-94.5,1
36.0,9.75,0.75,442.0,-500.25,-585.25,1917.0,76.5,1
-45.0,124.75,81.0,624.0,-96.5,-788.25,1989.0,1061.0,1
-128.0,167.0,264.75,305.0,27.5,-1041.5,1831.0,2103.25,1
-102.5,335.25,249.5,-38.25,264.75,-270.0,1670.5,2479.5,1
70.25,506.5,116.25,-126.75,325.75,388.75,1517.5,2433.75,1
38.75,633.5,-23.5,-491.25,208.0,208.25,1355.25,2263.5,1
-725.5,484.25,-105.5,-844.0,-441.25,378.0,1525.5,1940.25,1
-706.5,506.25,-360.75,-1572.5,-1596.5,523.25,1725.75,1420.75,1
-433.0,740.5,-557.25,-1705.25,-1498.75,654.5,1562.75,862.0,1
-973.25,265.5,-339.0,-937.25,-876.25,1016.5,1396.5,681.5,1
-707.0,36.75,-195.25,-738.0,-838.75,1136.0,1287.0,581.5,1
986.5,278.0,-235.0,-828.0,-781.5,969.5,1176.25,547.0,1
1333.5,363.25,-310.25,-1039.75,-479.0,596.75,964.75,792.25,1
1782.25,581.75,-341.5,-1513.0,-1146.75,352.5,551.0,1160.5,1
1901.5,620.5,-224.0,-1644.25,-1656.5,337.5,562.5,1229.75,1
1692.75,572.5,-175.75,-1538.0,-1575.75,157.5,674.5,1026.75,1
1303.0,513.0,-240.75,-1097.25,-868.25,48.25,793.5,876.5,1
621.0,441.25,-207.5,-641.25,-314.75,30.75,696.25,742.0,1
663.75,455.5,-45.75,-379.0,483.25,139.75,752.75,797.25,1
683.0,363.25,186.0,220.5,902.0,340.25,663.25,725.25,1
448.5,167.5,413.5,401.75,-35.5,395.75,1106.0,373.0,1
-101.75,129.25,581.75,301.5,-907.5,302.25,1504.0,80.5,1
-128.5,149.0,599.5,597.0,-1211.75,365.25,1207.75,-36.0,1
47.75,82.25,432.25,485.25,-1515.0,412.25,2106.5,-228.75,1
118.0,25.75,391.5,655.0,-1746.5,408.0,2168.75,-394.75,1
154.25,20.0,285.5,805.5,-1801.75,500.5,2091.25,-380.5,1
-278.0,-31.25,158.5,713.0,-1550.75,597.5,1968.0,-289.0,1
-636.0,-17.75,148.5,722.75,-105.0,734.25,1836.25,108.25,1
-655.0,-122.0,131.25,622.25,45.0,744.25,1740.0,509.75,1
-657.25,-197.25,74.75,645.5,167.75,738.0,1659.5,236.0,1
-513.75,-278.0,-21.0,590.0,492.25,652.0,1378.5,-89.5,1
-448.5,-386.5,-76.75,596.0,785.75,474.75,960.5,-472.0,1
-401.0,-370.75,-150.25,508.25,1087.5,472.25,756.25,-579.25,1
-385.25,-219.5,-214.0,565.75,167.0,484.5,204.25,-605.25,1
-378.75,-118.5,-356.25,594.75,-321.75,390.25,328.25,-793.5,1
-354.0,-116.75,-368.5,528.75,-801.25,303.75,628.0,-1198.75,1
-327.5,-113.25,-246.75,279.0,-1883.25,282.25,744.0,-1378.5,1
-248.75,-257.75,-315.5,-278.5,-2377.25,325.25,584.75,-1648.0,1
-152.5,-409.25,-315.75,-409.75,-2629.5,484.5,-25.75,-1900.0,1
-87.0,-540.0,-237.0,-361.25,-2648.25,705.75,-366.0,-2072.75,1
-53.0,-606.25,-108.25,-90.5,-1758.75,648.25,-333.25,-2154.0,1
-58.5,-575.25,50.5,9.0,-765.75,446.0,-279.75,-2055.5,1
-188.5,-439.5,5.75,32.75,-672.75,555.75,-385.25,-1922.0,1
-205.75,-233.25,34.25,822.75,-558.75,754.25,-858.25,-1762.75,1
-74.75,-103.25,-11.25,1273.0,275.75,833.25,-1317.5,-1678.0,1
-51.75,3.0,-159.25,916.25,693.5,517.5,-263.0,-851.75,1
-6.5,56.5,-262.75,409.0,801.75,-204.25,320.5,-381.75,1
2.25,11.25,-420.0,-251.0,993.25,-663.75,430.25,-620.75,1
-40.75,32.0,-387.75,-654.0,1144.75,-683.25,471.5,-1486.0,1
-55.0,307.25,-295.5,-677.5,1597.25,-616.25,95.25,-2112.25,1
-86.75,575.0,-198.5,-661.0,1777.25,-891.5,-914.75,-2419.75,1
-58.25,480.75,-143.75,-442.25,2016.75,-1324.75,-866.5,-2294.0,1
49.25,213.0,-249.0,-465.25,2412.0,-1601.0,-564.25,-1195.0,1
339.75,-48.5,-377.5,-232.0,2926.75,-1655.0,-808.25,-628.75,1
711.0,-36.25,-491.25,418.0,3214.25,-1712.0,-1233.5,-1152.0,1
785.25,198.5,-514.0,478.5,2389.75,-1778.75,-1486.75,-1913.25,1
294.5,-83.0,-329.25,443.0,1573.25,-1326.5,-1896.25,-1766.5,1
-739.25,-604.0,73.5,222.25,1283.25,-1083.25,-1809.5,-1242.0,1
-682.0,-1072.5,132.25,26.0,1128.75,-1116.75,-1473.5,-775.25,1
-469.75,-1344.75,110.25,211.25,899.0,-1018.25,-1370.75,-297.0,1
-646.25,-1395.25,325.0,235.75,944.25,-837.75,-1449.25,-272.0,1
-574.0,-1319.75,259.0,34.75,1238.5,-1167.5,-1223.5,-86.0,1
-541.0,-1294.25,251.0,78.0,1062.75,-1290.75,-1105.25,215.5,1
-444.25,-1226.0,244.5,108.75,760.5,-1388.75,-914.75,399.0,1
-277.75,-776.75,201.75,-141.0,656.0,-1205.5,-595.25,314.5,1
-63.25,253.0,-4.25,-395.0,147.25,-1030.0,-216.0,-179.25,1
248.0,917.25,-317.0,-403.5,374.5,-817.25,91.0,-145.5,1
231.5,1232.0,-195.5,-448.0,1069.5,-540.5,253.25,-259.5,1
342.0,1269.25,-61.0,-214.25,1019.0,-224.75,176.25,-235.75,1
457.0,1389.75,-90.0,-222.5,664.0,-67.5,-369.75,97.0,1
949.5,1720.25,18.75,-390.5,527.0,-28.0,-715.5,431.75,1
767.5,1393.0,243.0,47.75,1177.25,273.75,-982.5,952.25,1
-214.0,541.5,287.25,728.25,1857.5,81.75,-989.5,855.5,1
-318.25,229.5,-44.0,329.0,544.75,-681.25,-431.5,440.0,1
308.0,405.0,-89.25,-86.5,-304.5,-966.0,-58.25,-104.5,1
-235.25,-125.5,290.75,723.5,146.5,-938.0,-164.0,-147.5,1
-525.5,-156.25,434.5,465.25,-390.25,-971.75,-318.5,-126.0,1
-87.5,179.5,509.5,459.75,91.75,-1052.5,-753.25,-58.25,1
-676.5,-266.75,677.75,749.0,320.0,-873.0,-744.25,441.75,1
-669.5,0.25,639.0,445.25,-604.5,-208.5,-815.0,802.0,1
-612.0,73.5,556.5,558.75,-209.25,-370.25,-930.25,1236.5,1
-717.75,-8.5,562.0,213.75,-321.0,-664.0,-286.0,1356.75,1
-335.25,140.25,508.5,56.75,-455.75,-524.0,17.5,1914.75,1
-327.5,73.25,541.0,322.5,-648.0,-659.25,85.25,2268.0,1
-162.5,195.5,648.25,452.25,-478.75,-373.25,103.0,2314.25,1
-167.5,349.0,533.5,750.0,114.0,180.75,232.25,1952.0,1
-153.0,354.5,217.5,523.75,267.25,342.5,439.0,1490.5,1
-229.75,201.25,-169.75,316.5,92.0,211.75,844.0,1788.75,1
-210.0,-40.25,-311.75,223.75,121.25,219.0,1093.75,1871.5,1
-101.75,-290.75,-479.75,-280.75,48.25,481.0,1095.25,1943.5,1
89.5,-418.75,-501.0,-471.5,-144.0,815.0,1109.25,2217.5,1
31.75,-468.75,-209.5,-527.25,43.75,988.5,949.5,2093.0,1
73.75,-275.0,-127.25,-599.25,467.5,1103.5,817.5,2153.5,1
37.75,-67.0,-165.25,-338.0,691.25,1223.5,703.5,2150.5,1
51.5,253.0,-475.0,-433.75,712.25,1218.25,612.5,1730.5,1
155.5,378.5,-808.75,-492.5,714.25,1179.0,620.25,1333.0,1
243.25,348.5,-1063.5,-761.5,756.75,1083.25,441.0,1591.0,1
420.25,334.25,-1261.5,-684.75,1151.75,504.5,374.0,1805.75,1
301.75,249.5,-1286.25,-579.5,1000.0,-32.75,700.0,1171.5,1
390.75,286.75,-1176.5,-668.5,532.75,-393.25,565.75,791.0,1
390.25,249.5,-763.25,-697.5,462.5,-398.75,534.0,780.25,1
513.0,271.0,-315.75,-920.5,516.25,45.25,838.25,923.75,1
561.25,240.75,185.25,-758.25,667.0,327.0,647.5,1381.25,1
500.5,184.0,589.75,-683.0,760.0,515.25,836.75,1845.75,1
507.5,157.25,965.5,-621.0,904.0,15.25,1061.0,1670.5,1
494.75,143.75,962.5,-531.0,1015.0,-838.5,1014.25,1235.75,1
462.0,-16.75,894.5,-305.5,1234.0,-732.25,1100.0,1193.75,1
385.5,-135.5,894.5,-181.25,924.25,-763.75,1208.0,1095.25,1
456.75,-126.0,851.25,-182.75,754.0,-726.0,1107.0,1005.25,1
413.0,-184.75,646.0,-75.25,802.5,-139.0,762.5,964.75,1
359.0,-185.0,379.0,82.75,975.25,727.75,320.5,491.75,1
197.0,-239.5,442.25,239.25,901.5,845.5,-45.0,460.25,1
59.0,-125.5,460.75,181.0,595.25,851.0,-727.5,484.75,1
-45.75,23.0,332.25,56.25,345.5,634.25,-1177.5,-72.25,1
53.25,210.5,-72.75,-309.25,-248.75,394.25,-1293.75,-341.5,1
168.75,270.25,-780.25,-379.25,-563.5,320.0,-1358.5,-360.0,1
172.0,222.0,-1439.5,-242.75,-975.75,331.0,-1393.75,-502.25,1
260.25,227.75,-1346.5,-110.75,-1045.25,510.5,-1327.5,-423.5,1
198.5,181.5,-1249.5,-2.25,-875.0,842.75,-1302.25,239.25,1
177.25,142.75,398.75,-18.0,-709.75,1275.75,-1246.5,696.0,1
217.75,131.0,832.25,-87.0,-377.5,1844.75,-1126.75,519.75,1
154.5,41.75,631.5,80.5,254.75,2221.25,-1027.75,1002.5,1
66.75,-18.75,500.0,-15.0,21.5,2171.75,-907.5,1157.75,1
117.5,22.0,453.0,-77.0,-151.5,2147.0,-760.0,820.0,1
-1.5,-58.25,165.25,88.0,-693.0,1281.25,-574.25,864.0,1
4.5,-6.75,-284.0,3.0,-1549.0,786.25,-531.5,776.25,1
-28.0,-5.0,-209.5,279.75,-1060.0,1029.0,-708.75,598.5,1
-230.25,-35.5,-462.25,291.75,-974.5,1086.0,-789.0,394.5,1
-106.5,86.5,-619.25,55.75,-1451.5,991.25,-741.75,296.0,1
-60.25,76.5,-751.25,97.75,-1860.0,762.25,-755.0,-123.0,1
-160.75,-4.75,-792.25,103.0,-2482.5,1010.25,-664.5,-576.75,1
-122.5,44.0,-919.75,-48.0,-2666.0,1322.5,-768.25,-674.5,1
-35.5,24.75,-798.25,-43.75,-2337.5,1904.0,-1093.5,-424.25,1
-99.25,-168.5,-569.75,182.0,-2145.5,2122.75,-1293.75,-346.75,1
-155.0,-192.25,-488.75,263.0,-2292.5,1943.0,-1313.0,-828.5,1
-127.25,-122.25,-16.75,237.75,-2404.5,1294.0,-1121.0,-1116.75,1
-101.25,-149.75,111.25,145.25,-2332.25,1213.75,-831.25,-1228.5,1
-103.0,-215.25,352.5,81.25,-2224.25,1484.25,-512.75,-1163.0,1
-83.0,-94.0,468.75,-110.75,-2363.25,1240.75,-303.0,-1115.0,1
2.25,52.5,550.25,-365.75,-2345.0,1449.75,-391.25,-1182.0,1
40.0,102.25,545.5,-424.5,-827.75,1308.25,-679.75,-1401.0,1
75.5,102.5,451.5,-246.25,-90.5,659.0,-745.75,-1567.0,1
89.75,24.5,718.25,-45.5,64.5,269.25,-304.75,-1570.5,1
27.0,-123.5,712.0,-48.75,236.5,-764.25,253.25,-1243.75,1
-59.5,-218.75,386.25,-125.25,165.0,-1888.0,1187.75,-601.0,1
-115.0,-198.5,50.25,-217.75,82.5,-2099.75,1227.75,-246.0,1
-164.75,-216.0,-112.25,-190.0,106.0,-2095.75,1086.25,182.75,1
-190.25,-319.25,-380.25,-175.25,2.75,-2128.75,1038.5,172.0,1
-160.0,-416.5,-648.25,-193.5,-1256.5,-2049.5,1096.0,86.25,1
-120.25,-388.25,-681.25,-129.0,-475.5,-1196.5,1157.25,38.25,1
-79.75,-274.5,-751.5,-95.75,10.75,-136.5,1238.5,67.0,1
27.5,25.0,-876.5,-54.5,-74.5,-89.5,1279.25,62.75,1
34.5,315.0,-1043.25,-80.75,45.25,-66.5,1283.75,24.0,1
-18.5,523.5,-728.75,-22.25,96.5,-108.5,1178.0,-14.0,1
-51.75,515.5,-189.5,-10.25,112.5,-160.25,1173.25,-192.0,1
-25.0,499.0,177.75,-281.75,-271.75,-780.5,1289.5,-486.5,1
252.0,882.25,502.75,-468.75,-609.25,-872.25,1339.5,-1022.25,1
409.0,1053.25,533.5,-369.75,-381.75,-1039.5,1405.0,-1606.5,1
551.0,909.5,780.5,-178.25,-317.0,-1775.0,1574.5,-1609.5,1
730.0,795.75,834.0,-171.25,-208.25,-2126.75,1594.25,-1117.5,1
774.5,453.0,921.0,-134.25,879.75,-1810.5,1338.75,-838.0,1
626.75,68.25,1206.25,-32.0,2127.0,-1498.25,1062.25,-472.0,1
339.75,-236.5,1075.0,76.25,2616.0,-1320.0,905.0,-77.75,1
121.25,-568.25,823.5,84.5,2867.25,-929.0,742.0,29.0,1
26.5,-627.5,530.0,138.75,2855.5,-753.5,677.0,703.5,1
-91.0,-663.75,282.5,271.5,2377.5,-438.25,732.5,1893.25,1
-72.75,-638.75,205.75,327.5,2133.5,-653.25,738.0,1779.0,1
-112.0,-533.0,-16.75,372.25,1799.0,-781.0,705.75,1324.0,1
-88.75,-438.75,-227.0,376.0,1623.0,-638.0,887.75,1201.75,1
-57.75,-146.5,-445.25,354.0,1185.75,-696.75,1009.5,1471.0,1
2.25,224.25,-617.0,91.5,709.0,-664.0,1008.75,1590.5,1
43.75,287.0,-924.5,-259.0,801.25,-639.25,1139.0,1606.5,1
44.0,120.0,-1184.0,-268.0,785.75,-570.0,1243.25,1580.0,1
81.0,-0.75,-1154.5,44.0,1068.5,-589.0,1196.25,1519.25,1
-23.25,-183.5,-979.25,162.75,1141.25,-698.25,976.25,1616.0,1
-102.0,-232.0,-454.75,255.25,739.5,-599.75,918.0,1839.5,1
-107.25,-333.5,-239.25,420.0,589.0,-75.0,649.5,1689.0,1
-313.5,-607.75,-144.0,560.25,725.25,713.5,279.75,1193.25,1
-949.75,-929.75,358.75,704.25,793.75,1495.5,-16.0,968.0,1
-1179.75,-868.25,854.75,732.75,-250.25,1869.0,-227.5,972.75,1
-1212.25,-752.25,683.25,739.75,-664.25,2001.0,-93.0,1319.0,1
-1163.25,-700.0,413.75,707.75,-822.0,1926.25,60.25,1312.75,1
-1178.5,-643.75,248.75,638.0,-766.75,1731.25,242.75,1271.25,1
-1083.5,-595.25,80.5,614.0,-607.5,1735.25,366.25,315.0,1
-776.25,-519.5,-48.75,562.0,-651.0,1728.75,563.75,-622.5,1
-348.75,-431.25,-424.0,521.0,-337.75,1654.0,762.5,-921.5,1
-139.0,-285.5,-222.75,414.0,-428.0,1543.25,947.25,-1051.25,1
21.25,-86.25,511.75,312.0,-935.0,1576.0,1092.0,-884.75,1
20.5,220.75,1012.75,271.75,-976.75,1550.0,1190.5,-724.0,1
-133.25,409.75,1414.0,252.5,-815.25,1210.0,1384.25,-793.0,1
-247.0,330.0,1466.0,264.0,-942.75,884.25,1468.25,-886.75,1
-333.0,283.25,1129.25,279.0,-1119.25,626.5,1531.75,-968.25,1
-494.0,103.0,643.0,251.0,-825.75,451.0,1612.25,-920.25,1
-680.75,-21.5,164.5,279.0,-133.5,242.5,1381.0,-558.5,1
-723.5,-64.25,-234.5,95.0,214.25,34.0,1134.5,-162.75,1
-796.25,-0.25,-271.5,-113.5,2176.75,-42.5,941.0,-101.0,1
-863.0,93.25,-134.5,-151.0,1838.5,-78.25,679.25,61.25,1
-775.0,99.75,-0.75,-349.0,1589.5,-138.5,471.0,14.25,1
-534.75,56.5,294.5,-352.25,1888.0,-173.75,443.25,-156.25,1
-139.25,19.25,400.0,-448.75,2166.25,-187.5,295.25,-155.0,1
280.25,94.5,228.0,-577.0,2005.75,-152.75,-55.25,-604.5,1
480.5,74.25,-27.5,-419.25,1755.0,-83.0,-430.75,-1185.5,1
495.0,142.5,61.5,-240.75,1604.25,46.25,-841.5,-2358.5,1
283.5,137.5,112.0,-173.5,1465.75,225.5,-1107.75,-2896.0,1
297.75,182.25,100.5,-204.0,1073.75,308.75,-1428.25,-2907.75,1
482.25,218.25,53.5,-189.5,922.0,543.5,-1741.0,-2918.75,1
710.0,186.75,-219.75,-352.0,811.5,776.25,-1783.5,-2930.75,1
1223.25,272.5,-425.75,-486.25,1038.0,815.5,-1692.0,-2945.5,1
1219.0,274.0,-576.25,-533.0,1569.75,831.5,-1765.5,-2956.5,1
935.5,309.5,-611.0,-520.75,1875.25,798.5,-1974.25,-2761.25,1
482.5,216.75,-618.5,-246.75,1796.5,741.5,-2147.25,-2378.0,1
49.75,133.5,-677.5,-91.0,524.0,688.25,-2283.0,-1997.75,1
44.25,142.25,-784.25,-63.0,-251.5,643.25,-2273.5,-1701.75,1
153.75,141.0,-657.25,20.5,490.75,544.75,-2175.25,-1481.25,1
138.5,183.0,-811.5,-22.75,1183.0,553.0,-2072.75,-1321.0,1
36.0,170.5,-1083.25,59.0,1827.75,517.0,-1778.75,-1140.75,1
-177.25,241.25,-1053.75,11.25,1432.5,407.5,-1884.5,-1100.0,1
-451.75,288.0,-911.75,-113.5,93.5,368.25,-2075.5,-1131.0,1
-471.5,225.25,-472.5,-158.75,-275.5,386.0,-2029.5,-862.25,1
-122.5,245.0,-107.0,-244.25,-631.75,523.5,-1867.25,-499.75,1
376.5,201.0,118.75,-177.75,-131.25,705.25,-1366.75,-208.0,1
869.5,199.0,-166.75,-258.75,236.5,792.25,-681.75,28.75,1
1155.25,255.5,-313.0,-384.0,-1824.25,797.75,-41.5,259.5,1
959.25,212.25,-20.0,-457.25,-1986.5,804.0,41.25,559.5,1
311.5,132.5,211.25,-380.75,-1976.75,726.5,88.75,872.75,1
48.25,193.5,8.75,-240.0,-1816.0,649.0,55.0,950.5,1
43.5,201.25,-62.25,-39.0,-1382.5,597.0,-411.25,944.75,1
-73.75,130.25,284.0,-81.0,-1485.25,503.0,-715.75,953.75,1
170.5,262.75,169.0,-436.0,-2068.25,305.0,-658.0,983.25,1
398.0,519.0,-344.25,-545.0,-2024.75,-134.75,-565.25,1119.25,1
425.5,579.75,-999.25,-398.75,-2166.25,-367.75,-612.75,1386.75,1
433.0,537.5,-1304.75,-204.0,-2360.25,-468.25,-118.75,1595.0,1
406.25,619.75,-846.0,-157.25,-2247.25,-560.5,290.0,1487.0,1
371.0,583.75,-698.5,11.25,-360.75,-524.0,535.0,1072.0,1
376.0,264.25,-676.5,361.25,-20.0,-210.25,662.75,606.25,1
-386.25,-536.25,134.75,940.75,1.25,768.0,788.0,390.25,1
-1248.5,-931.25,1081.5,704.75,392.25,1194.75,539.5,87.0,1
-1097.75,-755.25,1142.25,356.0,1122.0,765.25,270.5,27.75,1
-845.75,-677.75,1203.25,207.5,1536.0,418.75,520.5,-60.75,1
-800.5,-581.75,1177.75,-518.0,597.25,-375.5,1252.75,520.5,1
40.0,-75.25,699.75,-1166.5,-18.25,-657.0,1800.0,916.25,1
314.75,54.0,540.5,-1128.5,-88.5,-468.5,1946.5,1143.0,1
579.25,290.75,554.0,-1001.25,575.75,-346.25,2415.0,1432.5,1
470.0,387.5,358.0,-1004.0,689.0,-92.0,2349.75,1797.0,1
334.0,356.75,63.75,-942.0,-225.0,-202.25,2358.25,2060.75,1
343.0,346.5,315.5,-781.0,-346.0,-302.75,2523.25,1915.0,1
-64.5,511.75,643.0,-746.5,30.25,-943.5,2413.25,1683.0,1
-841.5,398.25,728.5,-618.75,224.75,-1284.0,2365.0,1328.5,1
-1293.25,526.25,795.5,-155.75,417.0,-891.75,2376.25,763.25,1
-1250.0,620.25,764.5,253.75,509.25,-679.75,2204.5,362.75,1
-845.75,371.0,752.5,393.75,264.75,-718.75,673.0,239.25,1
-442.5,197.5,686.0,609.5,133.5,-662.75,169.75,483.0,1
-192.75,46.25,486.25,706.5,117.25,-1109.75,86.0,961.75,1
91.0,-70.75,220.0,722.5,126.5,-1740.75,-73.75,1691.75,1
144.0,-305.25,-12.75,814.75,-374.0,-1606.75,671.0,1616.75,1
165.75,-489.0,-325.25,815.25,-996.0,-885.75,912.75,1590.25,1
133.5,-838.0,-595.5,694.5,-724.5,-458.75,798.25,1856.25,1
67.0,-1190.5,-417.5,834.0,-744.25,90.25,-218.0,2162.75,1
-447.5,-1179.0,0.5,1274.25,-1267.75,776.25,-1045.0,1642.75,1
-498.75,-837.25,185.0,1110.75,-1449.0,865.5,-1401.0,1064.25,1
-302.25,-493.0,136.75,1051.5,-1671.0,795.0,-1226.0,1466.25,1
-342.5,-422.75,-179.0,1032.75,-1077.0,226.25,-992.0,1373.25,1
-285.75,-292.5,-587.75,747.25,-233.75,-305.0,-1188.5,1515.25,1
-158.0,-324.0,-626.75,464.25,-742.5,-689.25,-802.75,1686.75,1
-45.5,-206.5,-468.0,295.0,-1385.5,-1176.5,-543.25,260.0,1
79.5,-257.0,-196.0,205.25,-529.25,-1221.75,-103.25,-778.5,1
9.5,-263.0,285.25,34.25,821.75,-767.0,173.25,-1009.75,1
91.25,-269.75,308.0,-135.5,1564.5,-193.25,581.75,-1106.75,1
224.0,-297.5,355.25,-173.75,1080.75,-29.5,730.5,-1466.0,1
175.75,-286.5,145.5,-238.0,787.75,494.5,372.5,-1647.25,1
-78.75,-237.0,-23.0,-204.0,965.25,913.75,112.25,-1909.5,1
-290.25,-180.5,112.25,-268.5,1435.25,1135.25,-969.5,-2276.75,1
-215.0,-68.25,80.5,-245.0,1841.5,866.75,-2301.25,-2297.5,1
117.25,246.5,72.25,-187.75,1794.25,218.25,-1961.25,-1001.0,1
409.25,247.25,-0.75,12.75,2305.0,-22.0,-1775.75,-105.75,1
709.0,138.5,-108.5,93.0,2396.75,195.75,-1851.0,-103.5,1
881.5,61.5,-312.25,9.75,1740.25,938.5,-1451.75,-13.75,1
647.25,-3.0,-516.25,-7.75,1188.5,1341.5,-1027.0,-23.0,1
245.0,-114.5,-657.25,-126.0,1133.5,1233.75,-1245.75,95.25,1
-2.5,-206.25,-638.75,-213.0,1273.75,911.0,-1898.25,195.5,1
-85.0,-256.75,-625.75,-464.75,1281.25,275.25,-1430.0,362.0,1
5.25,12.25,-726.0,-1104.0,747.25,342.0,-949.75,828.25,1
554.75,803.25,-910.75,-1391.0,640.25,943.25,-384.0,1073.0,1
822.75,982.75,-1175.25,-1338.25,961.25,687.75,-435.5,621.25,1
842.75,920.5,-1132.75,-1292.25,1237.0,-35.0,706.0,-1048.5,1
979.0,880.75,-880.5,-1045.75,1822.75,-658.75,2101.25,-2149.5,1
1274.25,802.0,-738.5,-729.25,2212.0,-1401.5,1960.25,-2423.5,1
1179.75,854.25,-600.25,-485.5,2428.75,-1634.5,1635.0,-2084.75,1
1246.5,822.25,-331.75,-181.5,2119.25,-542.0,1276.25,-1962.5,1
1217.5,463.25,-11.25,-84.75,1635.0,812.75,1136.5,-1643.25,1
441.5,176.75,263.5,161.25,1513.75,1082.0,1109.75,-1517.75,1
-550.25,-26.5,314.5,335.0,1468.25,792.5,1141.0,-1114.0,1
-874.5,-105.25,286.25,503.0,1795.0,965.25,1084.25,-535.5,1
-649.25,-102.75,534.5,548.0,2249.25,962.75,974.25,-239.25,1
-716.0,78.0,747.0,567.25,2319.25,497.75,915.0,-292.25,1
-937.25,-22.25,861.5,663.75,2537.75,414.25,849.5,-360.0,1
-525.25,-82.0,870.0,950.25,2825.25,822.75,909.75,-419.5,1
-271.75,-64.0,834.25,1285.0,2811.25,975.75,856.25,-85.25,1
-100.0,-196.5,823.75,952.5,2551.5,740.0,797.5,399.75,1
-9.5,-239.5,630.25,568.5,2104.75,246.0,785.5,1001.0,1
-231.75,-274.25,370.5,285.75,1618.5,-257.0,752.0,1570.25,1
-115.75,-263.0,104.0,-97.5,1869.5,-249.0,742.0,1756.0,1
-4.25,-314.25,-11.0,-240.75,2639.25,-525.75,-1244.25,2002.25,1
-79.25,-389.5,-159.0,-369.25,2940.5,-498.5,-1119.25,2273.5,1
-181.75,-485.75,-473.25,-574.25,2365.5,-416.75,-991.25,2284.75,1
-243.25,-585.5,-605.75,-776.5,1014.5,-577.25,-863.0,2316.75,1
-335.25,-492.0,-555.25,-800.5,1323.25,-1073.0,-778.75,2311.25,1
-318.5,-177.5,-307.75,-783.75,1295.75,-1540.5,-776.25,2268.25,1
-159.25,63.0,-20.75,-512.5,-117.75,-1332.25,-806.25,2229.5,1
1.5,172.5,186.25,-58.0,-1650.75,-788.75,-821.75,1972.75,1
265.75,229.75,578.0,216.0,-2464.75,-507.0,-840.0,1634.0,1
383.0,160.75,654.25,159.5,-1494.0,-519.0,1136.75,1358.25,1
115.75,128.5,585.5,131.25,-124.25,-791.25,-866.5,-241.0,1
-238.75,215.75,752.25,225.5,191.0,-870.5,-776.75,-1437.5,1
-242.5,123.0,758.25,203.75,218.25,-928.0,-1027.25,-1083.0,1
-59.5,-26.5,649.0,203.5,461.75,-1016.5,-1029.25,-1053.25,1
-69.0,-17.25,410.75,319.75,711.75,-841.5,-1079.5,-986.5,1
-123.75,164.25,258.0,383.25,362.5,84.75,-1107.0,-760.0,1
81.25,443.75,156.0,298.25,-120.25,708.5,-1097.5,-483.75,1
27.25,502.5,-60.0,172.25,-989.25,745.0,-1032.5,-220.0,1
-291.75,413.25,-275.25,125.75,-1703.5,735.0,-1025.0,-216.5,1
-752.5,192.5,-609.5,118.75,-2006.0,846.75,-1019.25,-134.5,1
-1080.75,-131.25,-629.5,177.0,-2312.0,931.0,-986.75,11.0,1
-883.5,-362.5,-655.75,195.5,-2459.5,1034.25,-934.0,-39.5,1
-611.25,-381.5,-659.0,215.75,-2522.5,1069.25,-909.75,-416.25,1
-246.0,-150.0,-311.25,219.75,-2619.0,1040.75,-869.75,-612.25,1
-89.75,-82.25,-221.0,228.5,-2132.0,1057.25,-824.25,-884.25,1
-72.5,-195.5,-29.0,228.0,-1205.5,1073.0,-825.0,-948.25,1
40.75,-272.5,-10.0,211.25,-983.0,1034.5,-760.25,-991.5,1
-5.25,-298.5,-492.0,173.25,-1143.5,1056.75,-745.75,-1095.0,1
-19.75,-358.25,-637.5,80.5,-2277.25,1262.75,-788.0,-1055.5,1
-170.75,-690.75,-275.75,142.75,-2063.25,1681.25,-933.0,-706.75,1
-557.0,-738.0,-316.5,484.25,-1726.75,1787.5,-1247.25,-863.75,1
-524.25,-617.5,-350.5,480.5,-1915.75,1740.5,-1436.75,-1406.25,1
-466.5,-535.0,-193.0,480.75,-2146.0,1746.75,-1362.75,-1317.0,1
-511.25,-440.5,-142.0,588.5,-2424.5,1679.75,-1327.5,-1528.25,1
-403.75,-313.5,170.5,530.75,-2616.75,1574.25,-1171.25,-1623.25,1
-236.5,-195.0,388.75,406.0,-2663.0,1493.5,-499.75,-1396.25,1
-143.75,-19.5,796.0,251.75,-1446.5,1411.25,-85.75,-876.25,1
-84.75,9.0,990.25,119.25,-853.25,1345.0,151.0,93.5,1
-48.0,64.0,925.75,10.5,-571.0,1189.5,158.5,398.5,1
-39.5,85.75,736.75,-200.75,373.0,1047.25,-344.0,796.0,1
-145.0,64.25,328.0,-170.25,901.25,884.75,-659.75,1165.25,1
35.75,59.75,107.75,-114.0,2030.25,805.0,-451.25,1382.75,1
217.0,205.25,-67.5,-162.75,2097.5,413.5,-4.5,1329.75,1
314.25,288.5,-255.75,-362.5,1862.5,5.25,251.25,1166.0,1
333.0,227.25,-432.75,-377.5,2181.0,-641.25,535.75,1004.75,1
306.75,180.5,-296.5,-248.5,2308.0,-1230.5,1333.75,993.5,1
335.25,158.0,-151.25,-322.5,2215.5,-1245.0,1419.75,1251.75,1
321.5,253.5,-78.0,-246.0,2183.0,-1259.0,1373.25,1309.25,1
294.0,361.75,-25.0,-211.0,2245.0,-1100.25,1360.0,1183.0,1
317.5,489.0,-134.5,-448.25,2131.0,-976.75,1357.5,1174.25,1
315.75,512.0,-311.75,-674.5,1719.25,-908.75,1395.5,984.0,1
249.75,510.5,-467.5,-805.25,1828.25,-991.25,1482.25,925.25,1
266.5,518.5,-251.25,-949.25,1833.25,-1147.0,1577.75,801.0,1
248.0,388.0,-13.25,-1028.25,1235.0,-1329.5,1571.75,641.0,1
223.5,234.0,88.0,-849.25,1608.25,-1435.75,1241.0,565.5,1
184.75,37.5,125.0,-687.0,2337.75,-1455.5,1091.0,267.5,1
158.75,-153.0,80.75,-551.0,2461.75,-1434.75,1193.5,207.5,1
186.75,-116.0,101.0,-404.0,2108.5,-1457.25,1278.0,289.25,1
213.25,-49.25,-30.75,-360.25,1210.75,-1483.25,1133.0,402.25,1
128.0,126.75,-128.25,-328.5,458.25,-1467.0,716.5,572.5,1
-92.0,323.25,-140.5,-287.25,370.75,-1427.25,860.5,665.25,1
-194.75,345.25,-241.25,-236.75,262.5,-1310.5,1496.5,737.75,1
-127.75,475.5,-232.5,-195.75,-43.25,-1178.5,1991.0,735.5,1
-68.5,335.0,-131.75,-85.5,-1073.5,-1162.5,1755.5,627.0,1
-53.0,78.5,-111.75,10.5,-1426.5,-1105.75,1195.25,613.5,1
-25.5,-113.5,-87.25,114.5,-1004.75,-550.75,1149.0,753.25,1
-303.75,-554.25,-98.75,155.0,-204.25,6.75,1141.25,867.25,1
-581.25,-862.5,-215.0,154.0,-616.0,460.25,-1215.5,-971.75,1
-358.25,-810.25,-141.75,135.25,200.75,353.5,-1668.25,-776.0,1
200.25,-482.75,23.75,39.0,418.5,-204.25,-1691.75,-632.5,1
1054.5,187.25,82.0,0.25,-382.75,-949.75,-1338.5,1291.0,1
1186.75,782.5,145.75,-2.5,-1116.25,-1128.25,-1224.5,1273.5,1
759.25,654.75,173.5,52.75,-1638.0,-1170.75,-1280.5,1444.5,1
519.5,353.5,135.5,68.25,-1543.75,-1260.25,-1199.0,1508.5,1
469.25,105.5,-100.75,47.75,-1440.5,-1355.5,-1089.75,1623.75,1
71.75,18.0,-262.25,1.25,-1973.75,-1431.25,-979.5,-322.5,1
-84.5,144.25,-26.25,-182.5,-2451.5,-1604.25,-849.75,-284.5,1
177.0,465.0,145.25,-561.25,-2700.75,-2090.0,-532.75,-74.0,1
467.75,898.75,132.0,-578.0,-2333.0,-2097.25,-493.5,-138.25,1
467.5,754.0,85.25,-482.75,-1762.25,-1433.5,-638.0,-201.5,1
229.5,604.5,52.75,-535.0,-982.0,-610.25,861.75,-464.25,1
198.25,526.5,-7.25,-433.25,-361.25,-172.5,1489.5,-1659.75,1
346.75,383.5,18.25,-251.0,370.0,712.0,1427.25,-1996.0,1
469.75,208.25,51.0,-191.0,763.0,1556.75,1310.25,-1826.5,1
316.5,-228.25,-8.75,-29.75,874.75,1812.0,1168.5,-1739.75,1
255.75,-375.0,88.25,41.5,1822.75,1837.5,1125.5,-1373.75,1
89.25,-501.0,96.5,187.75,2254.25,1891.5,1042.0,-1149.5,1
-91.5,-589.0,76.5,248.75,1910.0,1716.5,1016.5,-829.0,1
-144.0,-356.25,-18.75,269.25,1983.5,1572.75,966.0,-814.5,1
-39.5,-301.5,-282.25,283.5,2199.0,1459.5,869.5,601.5,1
430.5,-194.25,-379.0,601.75,2585.5,1523.5,609.75,692.25,1
-496.25,-327.75,-19.5,1142.5,3017.5,1792.25,-735.5,889.25,1
-1060.5,-559.75,352.75,1316.25,3234.5,1703.25,-1677.0,1744.5,1
-912.75,-441.75,242.0,1078.0,2412.5,1409.5,-1654.25,1795.25,1
-890.75,-578.25,331.75,976.0,2197.75,1500.5,-1833.5,1927.5,1
-876.0,-422.0,347.25,820.5,1355.75,1438.5,-1755.75,1934.75,1
-880.5,398.0,331.75,753.5,234.5,1472.0,-1755.5,861.25,1
-994.75,338.75,352.5,475.5,-116.0,1444.0,-1667.0,1675.25,1
-1113.0,-4.75,217.5,143.0,-506.5,1333.75,-1637.25,464.25,1
-1302.0,-397.5,441.75,230.0,-534.0,1244.5,-1637.25,27.0,1
-366.5,-93.25,575.5,320.25,-2518.5,1040.75,-1648.25,127.25,1
-39.25,161.0,651.25,334.75,-2005.0,1054.0,-1712.75,394.75,1
-461.25,-273.0,660.0,361.25,-904.0,988.0,-1692.5,633.25,1
-497.75,-744.25,574.0,396.75,-796.75,976.0,-1643.0,-16.75,1
-636.5,-1150.0,431.25,416.25,-1202.0,986.25,-1430.0,-1053.25,1
-576.0,-1111.75,190.0,362.75,-1264.5,938.5,-1312.25,-756.0,1
-403.0,-970.0,-93.75,192.5,-1494.5,841.0,-1272.75,-693.75,1
-170.5,-449.25,-467.5,109.25,-1620.75,679.0,-1227.75,-297.25,1
97.75,-264.0,-613.5,109.0,-1054.75,607.5,-1212.0,-425.25,1
295.0,-160.25,-548.25,53.25,131.5,709.25,-412.75,-976.25,1
237.0,-105.75,-369.75,-45.0,204.0,841.25,671.0,-956.5,1
96.75,28.0,-187.5,-130.0,358.25,831.0,936.75,-987.25,1
100.25,144.5,-135.5,-134.25,489.5,807.5,1063.0,-997.5,1
-68.5,227.75,-160.25,-81.25,475.5,846.0,1141.25,-2013.0,1
-527.75,253.25,-157.75,-120.5,144.25,778.0,1049.75,-2864.0,1
-896.0,63.75,-121.5,-156.5,-203.5,775.0,990.0,-3028.5,1
-915.5,-102.75,-219.5,-166.25,-2340.75,982.25,1077.5,-3040.5,1
-468.25,-126.0,-392.75,-139.75,-2344.25,995.5,1255.5,-2892.25,1
340.0,262.5,-430.0,-42.5,-2252.75,938.0,1330.75,-2516.25,1
513.25,690.5,-465.0,-125.5,-2164.0,942.25,1319.5,-2202.75,1
-39.25,666.25,-593.25,-310.5,-1967.0,929.0,1202.75,-1609.25,1
-22.75,530.5,-688.5,-454.0,-1740.25,861.5,1018.25,-511.5,1
191.5,363.75,-754.75,-580.5,-1458.5,764.75,906.25,-26.75,1
568.25,131.5,-749.25,-607.5,129.0,614.5,951.25,287.75,1
1165.25,9.75,-753.25,-536.25,668.0,28.75,1147.5,325.5,1
887.75,4.5,-673.25,-472.0,497.25,-744.5,1279.0,-124.75,1
462.25,-3.75,-524.5,-432.5,529.25,-1621.25,714.25,-638.0,1
174.25,-112.0,-342.75,-327.5,1005.0,-1397.25,-587.0,-745.75,1
11.25,-96.5,-145.75,-398.0,847.25,-1267.5,-807.25,-678.25,1
24.5,339.75,-137.25,-480.5,-1284.25,-1295.25,-845.5,-399.5,1
487.5,500.5,-101.5,-428.0,-1373.75,-1420.5,-794.75,-504.0,1
1261.0,230.25,-173.25,-519.75,-1296.25,-1548.5,-793.5,-945.25,1
1454.5,170.25,-697.0,-706.0,-134.5,-1464.0,-946.0,-806.5,1
1043.5,-96.5,-1049.5,-452.25,663.0,-1283.25,-1020.0,-869.75,1
541.0,-379.5,-870.0,-86.0,680.25,-1192.25,-1000.75,-756.75,1
549.25,-291.25,-623.0,-300.75,337.75,-1166.25,-1097.5,-636.75,1
359.75,-431.5,-21.75,-242.75,1093.0,-1085.25,-1247.75,-450.75,1
662.5,-487.5,620.75,-164.25,2172.5,-1095.75,-406.25,-206.0,1
753.5,36.25,973.0,-217.25,2298.0,-1026.0,528.25,-207.25,1
279.25,444.75,1021.25,42.25,2541.25,-967.0,582.0,-259.5,1
196.25,206.75,1010.75,-113.75,2062.25,-928.25,889.75,-51.75,1
275.75,58.75,548.75,-415.75,1738.75,-929.5,1140.75,-271.5,1
134.0,325.0,120.5,-513.25,1116.0,-1466.0,1531.25,-750.5,1
-23.25,639.0,-312.75,-539.0,1173.5,-1972.75,1939.0,-862.0,1
-373.75,675.0,-447.25,-458.75,1330.0,-1921.0,1934.25,-697.25,1
-1105.75,457.25,-29.5,-378.75,1294.0,-1472.0,1767.25,-712.5,1
-1526.75,758.25,205.0,-162.75,1678.0,-950.5,1748.25,-996.75,1
-1092.5,749.0,166.25,196.0,2354.5,28.5,1508.0,-798.0,1
-889.25,-411.75,438.0,920.75,2755.75,819.75,672.25,-1130.25,1
-836.25,-651.0,708.5,1109.0,2691.0,348.0,240.0,-1431.75,1
-51.5,-601.5,655.25,1024.0,1025.5,227.25,-228.0,-340.75,1
151.5,-663.25,467.25,838.25,636.5,813.0,-894.75,28.0,1
-1.75,-630.5,457.25,773.25,561.0,838.25,-1413.25,1553.5,1
598.0,-623.25,280.75,561.0,-244.0,1040.0,-1225.75,1801.75,1
532.25,-671.25,224.0,453.5,-1707.0,1252.5,-1099.25,923.75,1
644.5,-426.5,147.5,102.75,-167.0,1244.0,-540.25,604.25,1
123.25,-482.5,42.0,79.75,152.25,1238.75,-245.5,460.5,1
16.5,-273.75,-11.75,6.25,6.25,1042.0,-160.75,1195.75,1
-66.25,76.75,-67.5,-243.75,-514.0,793.25,-407.75,2017.25,1
351.0,753.0,-596.5,-903.75,-919.75,155.25,-577.0,2141.5,1
499.0,799.75,-985.0,-987.25,-776.5,363.75,-147.75,1694.25,1
324.0,736.0,-735.5,-735.0,-660.0,667.5,244.0,2016.75,1
347.5,844.75,-644.5,-788.25,-711.5,801.75,432.25,2162.25,1
205.25,704.0,-501.0,-696.5,-179.25,1087.5,704.25,2068.0,1
78.0,536.25,-216.0,-724.75,63.5,869.25,786.5,2336.0,1
101.5,472.0,-41.75,-614.75,322.25,1313.75,748.5,2206.0,1
10.0,280.75,210.5,-500.75,286.5,1226.75,723.0,2427.25,1
-2.5,321.75,219.5,-333.5,-803.0,1183.75,255.5,1982.0,1
-73.25,18.25,234.5,-53.0,-1478.25,1221.0,-596.5,1735.25,1
-9.5,-168.0,161.25,-57.75,-1262.0,1141.0,-1058.5,1631.25,1
16.25,-216.25,-60.75,2.0,-1243.75,928.5,-1023.25,1185.5,1
-157.5,-404.25,-142.75,377.0,-760.0,852.75,475.75,826.25,1
-1038.5,-1126.75,332.75,1016.0,-281.5,1702.5,868.5,821.0,1
-1349.25,-1386.5,777.25,974.0,212.25,1815.75,1221.25,1381.75,1
-1235.75,-782.5,521.5,871.75,-197.0,1474.0,1357.25,2029.5,1
-1033.5,-439.0,481.75,920.25,-857.25,1518.0,1414.5,2431.75,1
-1032.0,-470.25,410.5,632.5,-870.25,1168.25,1830.5,2406.25,1
-661.75,-242.0,328.25,491.25,-826.0,1115.5,1833.75,2400.0,1
-660.0,-72.25,403.75,168.75,-773.25,840.25,2112.5,2401.75,1
-220.25,133.5,331.5,-163.25,-1201.5,296.75,2126.0,2363.0,1
147.5,188.75,254.75,-567.75,-2685.75,-24.0,1307.75,2412.5,1
681.5,454.75,58.5,-733.25,-2654.25,-129.25,487.0,2024.0,1
706.25,643.5,-63.25,-642.5,-1509.5,-22.5,390.75,1558.75,1
540.5,808.5,-328.75,-595.25,-609.75,-65.75,741.75,817.25,1
520.25,840.75,-620.0,-412.75,-606.75,198.5,500.25,513.25,1
481.25,734.5,-690.5,-218.0,-678.0,389.25,-37.5,253.25,1
478.25,712.25,-591.25,-144.25,-1368.75,-104.75,-682.75,-3.75,1
354.0,628.25,-423.0,-125.75,-1311.0,-183.75,-1961.25,-264.0,1
-3.5,479.25,-145.0,-57.75,-677.25,417.75,-2861.25,-1087.0,1
-506.75,238.0,231.75,69.5,-534.0,659.25,-2698.0,-1549.25,1
-863.75,100.75,511.75,208.25,-633.0,684.5,-1951.0,-1763.25,1
-950.0,85.75,596.0,247.0,233.75,663.25,-1414.0,-1866.5,1
-816.25,87.0,396.75,354.25,1333.25,1211.25,-983.5,-1870.25,1
-723.0,3.0,290.5,681.5,772.25,1119.5,-1041.75,-2046.0,1
-656.75,-221.5,15.25,779.25,611.25,565.75,-650.5,-2216.25,1
-401.0,-220.75,-409.75,965.5,720.5,1174.0,269.75,-2234.25,1
-253.5,-574.5,-450.25,1402.75,1660.0,2035.0,299.5,-2274.5,1
-335.5,-997.75,-136.75,1576.5,1792.5,2701.25,-291.25,-2995.25,1
-106.25,-650.25,109.25,561.5,1567.0,2629.0,-550.75,-3096.75,1
-14.25,-427.5,391.75,177.5,1865.5,2507.0,-679.5,-2857.75,1
-393.75,-570.0,814.5,-66.0,2482.75,2021.0,-1306.0,-3131.25,1
-510.5,-419.75,1040.25,-287.25,2483.25,884.75,-1436.5,-3049.75,1
-411.5,-408.5,1112.75,-391.0,2333.75,148.25,-1260.25,-2234.0,1
-335.25,-298.75,1362.75,-523.75,2272.25,-167.5,-1393.25,-806.75,1
-116.25,-353.0,1336.75,-654.5,1908.25,201.75,-1652.25,-105.25,1
-92.25,-432.0,1174.0,-396.25,1727.25,54.25,-1355.0,258.25,1
9.5,-304.5,986.25,-214.0,1733.75,28.25,-1048.5,611.25,1
144.5,-177.5,600.75,-255.0,1568.25,255.75,-889.25,1167.25,1
218.25,-131.75,88.25,-308.75,1112.25,38.5,-570.75,1592.5,1
300.0,-152.0,-355.5,-171.5,788.75,-326.0,-130.75,1769.75,1
589.75,-193.5,-641.0,-254.0,1395.0,-583.0,183.25,1799.5,1
888.0,-161.75,-880.0,-270.25,1751.25,-816.25,98.5,1474.0,1
1071.5,36.0,-911.25,-148.75,1661.25,-1139.75,38.0,474.0,1
1064.25,171.5,-923.75,-83.25,1384.5,-1117.25,81.0,-489.25,1
855.25,222.0,-973.25,-188.25,1256.0,-1064.25,52.0,-923.0,1
705.5,155.75,-923.0,-351.25,1386.75,-1052.75,35.5,-924.75,1
627.5,247.0,-762.5,-289.25,1670.0,-978.5,97.75,-1010.75,1
594.75,275.5,-549.0,-227.75,1769.25,-654.0,210.75,-1120.75,1
419.75,230.0,-404.25,-41.0,1812.75,-23.5,272.75,-641.5,1
113.0,224.75,-386.75,114.0,1876.25,332.0,506.25,-495.5,1
-244.75,136.5,-437.0,32.25,1838.0,763.0,575.0,-758.5,1
-656.5,152.75,-445.0,-15.5,1017.5,946.75,901.75,-630.5,1
-829.75,222.75,-348.75,95.75,729.5,899.0,1340.25,-450.0,1
-653.0,196.75,-278.75,209.0,280.25,804.25,1558.25,-272.0,1
-310.5,171.5,-294.0,305.5,200.5,794.0,1563.25,-154.0,1
-52.0,179.0,-303.0,409.25,134.75,867.5,1339.25,-18.0,1
149.25,92.0,-283.0,390.25,-612.5,933.5,864.75,143.75,1
377.5,127.75,-134.0,513.75,-905.0,926.5,542.75,82.25,1
509.0,132.5,-25.5,631.0,-720.0,902.25,263.25,-183.5,1
588.75,5.0,-46.25,596.25,58.0,952.75,477.0,-392.75,1
577.75,-39.5,-33.5,250.5,638.5,695.5,1239.25,-406.75,1
365.75,-98.75,4.75,-24.75,676.0,-54.75,1640.0,-251.5,1
51.75,23.75,75.5,-337.0,576.25,-673.5,1495.25,-48.25,1
-318.25,111.25,75.75,-536.0,251.25,-974.5,1257.25,139.25,1
-453.25,53.25,58.0,-561.25,-257.75,-1345.5,1330.25,130.25,1
-373.5,-0.5,44.5,-503.25,-526.75,-1418.25,1331.25,-543.5,1
-59.0,-79.25,12.5,-275.0,-517.75,-1328.75,1269.5,-2442.5,1
332.75,-109.5,-52.5,34.75,-370.25,-1140.0,1302.5,-2298.0,1
622.0,-105.5,-98.5,226.75,-84.25,-1139.5,1333.25,-2056.75,1
851.25,0.0,1.25,150.0,-4.0,-1081.5,1315.5,-1344.0,1
677.25,5.0,51.0,-79.5,-278.75,-1054.25,1258.75,-907.75,1
235.5,4.0,50.75,-157.75,-271.75,-1139.0,1229.5,-959.25,1
-280.75,44.5,84.25,-236.0,180.75,-1198.0,1235.5,-1021.0,1
-431.5,45.75,67.25,-410.5,595.5,-1044.75,1177.75,-1010.75,1
-453.25,39.0,25.0,-495.0,659.0,-167.25,1126.75,-1193.5,1
-716.25,33.0,-6.5,-575.5,339.75,391.75,1016.75,-1721.0,1
-794.0,37.75,37.0,-420.75,107.5,314.0,514.25,-1271.25,1
-790.0,5.75,56.0,10.0,17.0,423.5,170.75,-180.25,1
-729.0,-8.75,20.0,253.75,-73.5,815.5,-87.25,330.0,1
-717.75,23.75,-36.75,67.75,-338.75,1017.0,-518.0,877.25,1
-340.5,73.5,-185.25,-71.75,-852.75,886.5,-972.25,905.5,1
76.75,60.75,-212.5,-304.5,-1281.75,700.75,-907.5,789.0,1
257.0,37.25,-41.5,-451.0,-1616.75,782.75,-854.75,953.75,1
407.0,37.0,145.25,-231.25,-1796.25,922.25,-802.75,1567.25,1
438.5,51.75,279.0,-113.5,-1768.0,1248.25,-302.5,1714.75,1
494.75,70.25,253.75,-68.5,-1693.25,1112.5,73.75,1781.5,1
413.75,49.5,172.5,-52.25,-1518.25,783.5,345.25,1748.75,1
287.25,64.5,123.75,83.5,-1446.75,295.0,297.0,1635.5,1
181.25,77.0,91.0,213.75,-1414.5,-721.0,329.25,1557.25,1
200.25,40.5,84.0,368.25,-1342.5,-1761.5,193.0,1154.5,1
282.75,17.25,71.75,412.75,-1327.0,-2040.75,194.25,599.5,1
363.75,-4.25,24.0,383.25,-1279.0,-1740.0,448.5,-796.25,1
419.25,-14.0,-39.25,385.5,-1208.25,-1377.75,566.25,-1924.0,1
402.75,82.25,-97.5,277.5,-1211.0,-1330.25,576.5,-2028.5,1
383.75,153.0,-167.75,311.0,-1160.0,-1312.25,639.75,-2174.0,1
407.25,205.25,-185.5,387.0,-1058.5,-772.5,313.75,-2153.0,1
365.0,201.25,-137.0,461.0,-1144.75,-221.0,-377.0,-1936.25,1
154.75,153.5,13.75,425.5,-1223.0,15.0,-1086.5,-1758.75,1
1.25,106.75,171.75,394.75,-1211.25,381.75,-1623.0,-1637.0,1
-87.75,23.25,292.5,473.0,-1252.5,486.0,-1598.25,-1550.25,1
-150.75,-62.5,382.5,-27.0,-1225.75,-18.75,-1432.25,-1417.0,1
-226.25,-93.75,208.5,-625.25,-1085.25,-708.75,-862.25,-1153.5,1
-296.5,-28.0,-44.0,-345.5,-1045.75,-630.0,-323.5,-633.5,1
-317.5,-105.5,-22.0,31.25,-1089.25,-549.5,-4.25,-208.25,1
-349.0,-143.25,-30.75,-125.5,-1164.0,391.25,434.5,137.75,1
-335.25,-169.75,-84.75,-264.25,-1374.0,-16.0,819.5,384.25,1
-366.0,-164.5,-65.25,-375.25,-1476.0,-70.5,558.0,568.5,1
-608.5,-48.5,-96.5,-531.25,-1353.25,11.5,-189.25,789.75,1
-870.0,-20.25,-48.75,-439.0,-1101.25,126.25,-756.25,661.25,1
-649.75,-1.0,-13.25,-388.25,-962.5,178.0,-1245.5,770.75,1
-399.5,30.75,48.5,-291.25,-1026.5,132.0,-727.25,899.75,1
-250.25,66.25,72.0,-153.5,-912.0,225.5,-138.75,920.0,1
64.25,54.5,55.25,-16.25,-683.5,-602.5,-82.0,1144.0,1
36.5,52.25,80.0,375.25,-461.75,-1546.25,-58.5,1137.0,1
129.25,-49.25,37.25,725.75,-228.5,-1825.75,-491.25,955.75,1
242.0,-139.5,12.75,552.0,-57.75,-1924.25,-870.25,943.5,1
275.5,-195.25,-50.0,329.5,34.5,-1225.5,-879.25,851.25,1
364.75,-214.25,-89.5,438.75,149.0,49.5,-425.75,864.0,1
336.0,-121.5,-75.25,88.0,1255.75,116.5,-408.25,853.0,1
338.75,-87.25,-56.75,-426.75,2097.5,233.75,-555.0,689.0,1
102.75,-98.25,37.75,-599.5,1969.25,315.0,-1108.25,345.5,1
-74.75,-93.0,27.0,-827.0,1929.5,407.0,-1276.5,-179.5,1
-93.25,-5.75,-26.75,-1002.75,1756.5,413.25,-961.75,-322.75,1
202.0,235.0,27.0,-1254.5,1331.0,71.25,-416.75,38.0,1
523.5,710.0,49.25,-1104.5,1428.0,36.5,273.75,-28.75,1
395.25,675.25,-113.0,-909.5,1545.5,262.0,107.25,-356.25,1
316.25,563.25,-225.75,-917.5,1463.25,133.5,-50.5,-276.75,1
210.25,636.25,-266.5,-816.25,1466.25,-1307.25,-393.0,-403.25,1
87.25,616.25,-388.75,-707.25,1433.0,-1034.5,-458.0,-829.0,1
151.5,608.25,-334.75,-508.0,1401.0,-886.25,326.5,-1188.5,1
164.0,532.25,-232.5,-282.0,1085.25,-559.75,1047.25,-1456.5,1
216.5,466.5,-158.5,-273.5,892.25,-274.0,1050.0,-1538.75,1
299.5,451.25,-67.5,45.75,1297.25,333.0,1387.25,-1208.0,1
293.0,348.0,-19.25,177.75,1843.75,1530.0,1822.0,-830.75,1
359.75,326.5,-11.5,203.5,2125.0,2078.25,2029.25,-475.75,1
182.0,172.75,-32.5,353.0,2218.5,2766.25,2038.0,271.5,1
-33.25,-59.75,-54.75,473.0,2310.0,2849.5,1894.25,471.75,1
-355.5,-192.25,-76.25,557.25,2348.25,2104.5,1843.75,293.75,1
-765.25,-233.75,-102.5,755.25,2394.75,1264.5,1244.75,270.75,1
-1366.75,-234.0,-118.5,897.25,2358.25,1219.5,569.75,216.5,1
-1492.0,-258.25,-65.0,776.25,2221.25,1799.0,82.25,392.25,1
-760.5,-253.5,25.25,647.5,2365.75,1482.5,41.0,666.25,1
-134.75,-233.25,129.25,718.75,2407.25,844.5,199.0,648.25,1
70.0,-256.5,171.25,814.0,2495.5,474.5,552.75,601.25,1
77.75,-323.5,186.0,846.25,2277.75,-76.25,756.25,271.75,1
33.5,-385.5,183.25,875.5,2030.0,-1056.0,947.75,241.5,1
58.75,-417.0,130.0,811.5,1646.75,-1069.75,1188.25,257.25,1
76.0,-525.5,86.5,828.5,853.0,-633.5,1410.75,125.25,1
445.75,-533.25,20.0,797.25,284.25,427.75,1050.5,37.0,1
676.75,-426.5,-22.75,602.0,121.25,1369.0,594.25,-178.0,1
479.25,-466.5,-9.75,473.5,123.25,1641.5,-25.5,-763.75,1
207.0,-413.25,-70.75,140.25,-498.25,1579.25,-423.5,-1100.5,1
-57.5,-450.75,-108.0,-218.0,-1176.75,2320.0,-837.25,-1253.75,1
-192.25,-543.75,-12.75,-411.75,-1610.25,2054.0,-597.25,-1264.75,1
-497.5,-347.25,50.25,-454.5,-1726.75,1826.75,-431.25,-1073.5,1
-494.0,-109.25,87.25,-284.0,-1769.25,1443.25,-502.0,-1024.25,1
-481.75,42.5,145.5,-132.75,-1829.0,355.5,10.75,-907.0,1
-474.75,-17.0,122.0,-71.0,-1875.75,-315.75,620.25,-888.5,1
-425.75,-112.5,129.25,68.0,-1903.25,-769.25,869.0,-865.75,1
-366.25,69.5,158.75,286.0,-1924.75,-1114.25,749.0,-842.75,1
-266.5,120.5,157.5,386.5,-1925.75,-1369.5,207.5,-846.5,1
-250.5,-169.0,144.75,334.0,-1945.75,-1865.0,345.25,-790.25,1
-168.75,-516.0,153.0,350.25,-1984.75,-1426.5,536.0,-755.25,1
-147.75,-600.75,213.0,339.0,-1202.75,-454.75,328.0,-525.0,1
-326.5,-376.25,178.75,158.75,246.75,50.75,-180.0,-272.0,1
-603.75,-391.25,112.5,40.0,565.75,-299.5,-1060.0,-223.75,1
-458.25,-394.75,64.0,-62.25,883.75,-304.0,-486.75,-195.25,1
-247.25,-145.0,66.75,149.25,1065.25,-76.0,-208.5,103.0,1
-108.5,60.0,58.75,247.25,1088.5,134.0,-611.5,275.25,1
181.25,139.75,30.75,428.0,931.25,388.0,-1337.75,381.5,1
238.25,102.0,38.0,755.0,603.5,486.0,-1833.0,420.75,1
185.0,191.5,-37.75,430.25,387.75,385.75,-2199.75,436.25,1
101.0,210.75,-19.75,263.25,449.75,423.25,-2202.5,548.0,1
14.5,181.75,-54.5,52.5,607.5,572.0,-1430.25,581.0,1
-82.5,35.0,-204.25,-372.75,789.75,319.75,-668.5,652.75,1
-93.5,-89.0,-296.5,-578.25,851.5,130.5,803.25,626.25,1
-137.5,125.0,-339.25,-834.75,624.25,-119.5,1420.0,681.0,1
-556.25,-11.5,-292.0,-1127.5,397.25,-762.75,1489.25,758.5,1
-703.5,-184.25,-274.0,-1283.0,334.0,-1296.75,875.0,791.5,1
-175.75,-164.0,-76.0,-1068.0,615.75,-854.5,483.0,919.0,1
295.5,-327.5,114.75,-468.25,1090.25,209.75,471.25,1126.75,1
837.0,8.5,-13.25,-210.5,1484.0,536.75,408.5,1078.75,1
1254.0,284.0,-199.75,-372.0,1498.0,287.0,443.75,915.25,1
1297.5,303.75,-375.75,-498.25,1106.5,67.5,532.0,707.0,1
1087.5,264.0,-431.25,-330.75,799.0,-357.75,600.75,458.75,1
158.25,-77.25,-239.25,42.5,1047.75,-853.25,195.0,268.25,1
-1000.0,-324.0,203.75,130.75,1275.75,-1107.5,-265.5,5.75,1
-907.25,-369.75,278.75,99.25,587.0,-825.75,-628.0,-605.0,1
-557.75,-261.0,202.0,279.25,-344.0,-647.25,-795.5,-1136.75,1
-708.75,-300.0,346.75,516.75,-1254.75,-819.25,-682.75,-1221.5,1
-666.5,-110.75,252.5,818.25,-1588.75,-1021.75,-734.75,-1255.0,1
-722.0,-40.75,260.5,1136.25,-1353.0,-443.25,-941.5,-1180.75,1
-724.5,62.0,230.0,961.5,-1100.0,-288.75,-1004.5,-1144.0,1
-540.0,87.25,217.25,658.75,-802.25,-111.5,-844.75,-1131.0,1
-429.0,85.0,237.75,385.75,-720.25,-465.0,-719.5,-1108.0,1
-183.0,153.75,192.25,99.25,-642.25,-391.75,-1304.25,-1086.5,1
-2.25,132.25,149.0,-209.0,-577.5,-10.25,-1854.25,-1030.75,1
152.0,172.5,-30.0,-869.75,-528.25,-231.0,-1593.25,-715.0,1
148.5,142.5,-127.0,-1047.5,-477.25,-739.75,-1459.25,-179.0,1
82.0,145.5,2.5,-1137.5,-435.75,-1300.25,-1531.25,308.5,1
121.0,201.25,241.75,-931.25,-409.5,-1858.75,-1526.0,774.75,1
399.25,295.0,277.25,-518.5,-368.0,-1905.0,-663.75,1051.0,1
605.75,340.25,127.25,-476.0,-276.0,-1158.0,-147.0,1105.75,1
1046.0,535.75,-302.0,-724.0,-145.5,-1064.75,-297.5,1228.25,1
1354.5,800.0,-849.75,-447.25,361.5,-645.25,-213.75,1318.0,1
658.75,279.25,-831.5,469.25,1459.25,631.75,-348.75,1363.75,1
-271.5,-687.5,-255.25,1472.25,1581.0,646.25,-110.75,1508.0,1
-273.25,-537.0,-160.75,1526.0,1438.75,214.25,247.5,1702.75,1
-189.25,-344.75,-469.75,898.75,1538.0,125.75,352.25,1907.75,1
-424.5,-432.5,-630.25,386.5,859.75,-78.25,734.25,2114.5,1
-181.75,-111.5,-372.25,-527.75,-1022.75,-259.5,1095.5,2078.25,1
-296.75,-90.0,216.25,-850.0,-1369.0,-870.0,1201.75,2007.75,1
-221.25,18.5,542.5,-1161.25,-1407.5,-1106.0,1211.5,1932.5,1
-236.0,62.0,838.25,-1251.0,-1522.5,-789.75,1238.75,1794.75,1
-68.0,169.5,883.75,-639.5,-1769.75,-668.0,1269.0,1642.25,1
77.0,253.25,686.5,-66.75,-1729.0,-217.75,1220.0,1448.25,1
100.25,244.25,417.0,40.25,-1926.0,155.25,1203.5,1048.25,1
352.75,382.0,125.25,-232.25,-2397.5,474.75,1236.75,453.25,1
734.25,542.25,-147.75,-390.75,-2360.75,1084.5,1102.0,85.75,1
754.0,424.0,-238.0,-239.25,-1677.25,1179.0,823.75,-116.75,1
573.75,261.75,-33.75,-137.75,-1632.0,1155.25,646.25,-275.25,1
583.0,251.75,36.5,-126.75,-1424.5,602.5,354.25,-432.5,1
302.75,172.25,66.5,-193.25,-1415.5,251.5,108.75,-616.25,1
439.75,316.5,30.25,-457.5,-1572.5,-139.0,-215.25,-820.25,1
457.25,316.25,-20.25,-272.75,-1424.0,-624.5,-400.5,-1073.75,1
442.5,428.0,-118.0,-223.25,-1852.75,-587.25,-102.5,-1347.75,1
419.75,708.0,-282.5,-156.75,-2188.5,-47.75,341.5,-1662.75,1
197.5,693.5,-401.5,-110.5,-2182.0,175.5,679.75,-1918.25,1
-227.5,615.75,-480.75,-126.0,-2060.5,-181.0,989.5,-2155.0,1
-541.5,474.25,-363.75,-174.5,-1878.75,-321.25,1350.0,-1427.5,1
-803.75,270.75,-164.25,-275.0,10.0,-276.75,1246.25,-445.0,1
-1050.0,112.0,-180.5,-340.75,1005.0,174.5,1111.0,-407.75,1
-683.25,99.25,-554.25,-350.75,1080.75,644.75,823.25,-651.5,1
-505.0,70.5,-634.25,-148.5,1013.0,213.25,762.75,-839.0,1
-103.75,113.25,-657.25,-33.25,951.75,302.75,736.25,-1010.5,1
506.75,16.5,-706.75,46.0,1057.0,609.5,650.25,-1052.25,1
661.75,-93.5,-719.5,60.0,1003.25,483.5,740.0,-1014.0,1
772.0,-86.25,-753.75,-3.0,1084.25,763.5,857.0,-1004.5,1
659.75,-70.5,-753.75,-42.5,984.75,940.25,677.5,-1011.0,1
673.75,-20.75,1086.25,113.0,979.25,1167.0,354.75,-1076.25,1
690.75,49.0,1243.75,263.5,877.0,1499.25,8.5,-1015.5,1
456.5,-120.5,1197.25,316.75,751.75,1736.5,-356.0,-186.5,1
-236.5,-860.75,1243.5,780.5,864.75,1947.25,-833.0,1317.25,1
-871.5,-969.25,1401.0,1116.25,616.25,1521.5,-979.5,765.0,1
-902.75,-888.75,1312.25,1076.75,-543.0,915.0,-940.5,967.0,1
-1026.75,-1013.0,1177.5,1005.75,-536.5,485.75,-1030.75,-288.25,1
-1393.25,-835.5,808.75,830.75,-538.25,8.75,-902.25,-628.0,1
-1317.5,-645.25,286.75,427.0,-772.75,-303.25,-594.75,712.75,1
-951.0,-566.75,102.0,306.75,-195.5,-528.0,-602.25,1313.75,1
-146.25,-443.5,-125.25,327.25,-114.5,-71.75,-697.5,1484.75,1
408.0,-375.25,-222.25,301.75,-1083.0,620.75,-768.0,1399.75,1
998.5,-133.75,-394.5,-35.0,-1188.75,803.25,-631.75,1340.0,1
1171.25,49.25,-579.25,-5.75,-1263.0,848.25,-644.75,1343.0,1
1227.75,236.5,-587.0,156.5,-1180.5,499.0,-598.0,1399.0,1
978.5,138.75,-638.5,177.0,-1105.75,-173.75,-641.5,1571.0,1
550.75,95.25,-614.75,82.75,-1111.25,-685.0,-814.0,1611.0,1
168.25,127.5,-763.25,-98.75,-1122.5,-580.25,-772.25,1715.25,1
-81.25,188.0,-851.75,-268.75,-1246.75,-173.75,-466.5,1682.0,1
140.25,586.75,-1022.75,-798.75,-1636.0,-80.0,-132.75,774.25,1
364.25,1003.25,-1056.0,-589.0,-1591.0,218.25,-126.25,-395.75,1
324.5,905.0,-1186.0,-137.0,-1508.0,357.5,-286.0,-1153.0,1
302.0,876.25,-1393.25,-390.5,-1762.75,79.75,-166.25,-1584.5,1
355.0,1051.75,-1481.25,-683.0,-1596.25,-135.25,-187.75,-2191.75,1
321.5,819.75,-1470.5,-820.75,-398.5,-153.0,-236.25,-2336.0,1
320.25,727.5,-1430.5,-964.5,853.0,-190.0,-383.5,-1959.25,1
244.75,698.5,-1372.25,-909.5,1320.5,-307.25,-865.25,-1810.0,1
58.25,470.25,657.0,-894.25,1528.75,-614.5,-800.5,-1544.25,1
-224.25,205.0,673.75,-655.25,1668.0,-539.5,-772.75,598.5,1
-610.5,-184.0,705.25,-581.5,1795.0,-504.5,-1244.5,756.5,1
-1070.5,-54.75,841.0,-658.0,2068.75,-431.0,-1219.0,882.0,1
-1130.5,393.75,970.0,-374.75,2140.25,26.0,-1186.5,961.25,1
-1152.75,631.75,1006.75,-56.0,2127.0,495.25,-1297.25,1132.0,1
-1124.75,317.0,908.5,-81.25,2189.5,589.75,-1460.25,1277.0,1
-587.75,-79.5,694.0,-149.0,2136.25,361.75,-1441.0,1238.75,1
753.75,-371.0,593.5,-126.5,2069.75,152.25,-1316.75,939.5,1
1290.0,-895.0,713.75,513.0,2162.5,276.5,-1453.25,723.25,1
497.5,-1733.0,864.5,1233.5,2398.0,492.0,-1407.25,798.25,1
35.75,-1943.75,-468.5,1116.0,2214.0,310.75,228.75,953.25,1
64.75,-1830.0,-730.5,811.75,1509.0,195.25,746.0,799.5,1
77.0,-1514.25,-887.0,153.25,35.75,-29.0,1091.5,591.0,1
606.25,-701.0,-938.5,-560.25,-987.5,-757.25,1565.5,405.75,1
1112.25,-138.0,-1057.25,-475.25,-1341.25,-918.75,1800.0,584.75,1
1004.75,546.25,1076.25,-271.75,-1753.0,-662.5,1950.75,858.0,1
1070.5,1016.25,1165.25,-166.0,-1769.0,-757.75,2051.0,652.0,1
538.75,1020.5,1381.75,107.75,-1603.0,-615.25,1684.0,235.75,1
239.5,1014.5,1507.5,74.5,-1802.75,-473.0,1141.25,-38.0,1
-249.25,867.75,1582.5,370.5,-1612.75,-432.25,1299.25,-910.5,1
-587.5,838.75,1441.25,484.25,-1457.5,2.25,1455.0,-1231.0,1
-550.0,794.25,143.5,483.75,-823.25,582.0,1378.75,-1317.5,1
-717.0,753.0,-732.25,206.0,-287.25,733.75,1262.5,-1396.25,1
-585.0,834.75,-923.75,-417.0,49.0,463.75,964.0,-1493.75,1
-992.0,612.5,-972.0,-559.0,124.75,372.5,878.0,-1782.5,1
-1487.75,282.75,-746.5,30.25,-227.0,289.75,639.5,-1986.0,1
-1426.5,-42.5,-558.5,292.5,-730.0,-187.5,477.0,-1806.0,1
-1219.5,-423.75,900.75,-6.0,-1691.0,-285.0,669.75,-1668.0,1
-1052.0,-843.0,1323.75,-57.25,-2279.0,645.75,846.0,-1569.25,1
-339.25,-986.5,1267.75,125.5,-2042.75,943.0,568.0,-1408.0,1
361.25,-1227.75,1219.0,332.75,-1642.0,446.75,425.5,-1482.75,1
1078.0,-1357.5,1081.25,173.25,-1369.0,144.5,715.25,-1719.75,1
1301.5,-1328.25,1034.75,285.5,-1181.5,-557.25,1074.5,-1616.5,1
1126.5,-1191.0,924.75,386.0,-706.75,-595.25,1260.75,-1316.0,1
520.25,-510.75,-272.75,506.5,-277.25,-357.5,1146.75,-210.75,1
-348.75,-4.75,-810.25,786.25,32.25,-45.0,1000.75,646.5,1
-683.75,69.0,-911.75,807.0,276.0,370.0,894.75,763.25,1
-697.75,-55.5,-918.5,890.75,418.75,728.75,575.5,254.0,1
-511.5,-311.0,-1064.0,843.75,657.5,1163.25,136.75,-154.5,1
-620.5,-479.0,-1115.75,830.5,389.5,1539.25,254.75,39.75,1
-846.25,-472.5,-1090.5,617.5,-559.5,1320.5,640.25,-52.5,1
-1023.25,-364.75,-1160.0,-203.25,-1386.0,921.75,214.25,579.25,1
-677.5,534.25,-1130.25,-1282.0,-2488.75,251.25,189.5,1447.5,1
-168.25,1389.0,-1222.25,-1170.0,-2608.25,8.25,-139.5,1689.5,1
-66.25,1536.75,-1385.5,-886.0,-2342.0,-531.5,-1035.0,1825.5,1
125.25,1285.5,-1457.25,-863.0,-1583.25,-1224.75,-1263.25,1576.75,1
1472.25,1218.75,-1195.25,-435.5,-602.75,-1944.75,-1406.0,1264.25,1
1747.75,916.0,-755.5,-564.25,-493.0,-1867.25,-1333.75,1232.25,1
1792.25,703.75,-745.0,-424.0,230.75,-1809.75,-1014.0,596.5,1
1554.25,459.0,-1417.75,-244.75,712.5,-1563.0,-1021.75,-250.75,1
1438.0,352.0,-1427.0,-153.5,763.75,-1328.25,-1164.5,-274.75,1
555.5,344.5,-1409.25,37.5,1076.0,-16.0,-1308.5,-258.25,1
-734.0,843.25,-1415.75,82.75,1257.0,361.25,-1385.0,-149.0,1
-1013.0,1314.25,-1292.5,292.5,1480.25,781.5,-1155.5,-119.75,1
-917.75,1139.25,806.75,147.75,1787.0,-174.5,-1037.0,-64.75,1
-215.75,940.25,860.75,34.75,2010.75,-759.25,-1055.5,-11.75,1
275.0,632.25,856.0,-123.75,1723.75,125.75,-942.25,44.0,1
161.25,-18.25,798.25,-274.25,1129.0,151.5,-602.5,126.0,1
-122.0,-753.75,639.75,-482.5,734.75,701.75,-568.25,152.75,1
-801.75,-1025.5,513.0,-913.25,652.0,812.75,-901.5,180.25,1
-975.5,-1261.5,716.75,-726.5,565.0,-225.75,-822.0,193.5,1
-597.25,-1120.0,1064.5,359.75,426.5,382.25,-664.0,239.75,1
-296.75,-1053.75,903.5,609.5,270.25,918.5,-880.25,277.5,1
237.5,-1149.75,1056.5,289.75,296.75,103.5,-1119.0,361.5,1
782.25,-1096.25,927.0,191.75,512.75,0.0,-1268.75,-156.5,1
784.75,-894.0,690.0,53.5,541.0,234.0,-1198.0,-1110.0,1
361.75,-555.0,248.0,201.25,204.75,93.75,-1078.75,-1394.25,1
-142.0,-610.5,-337.25,183.75,114.0,80.0,-1378.5,-1129.5,1
-305.5,-613.75,-893.5,249.25,13.0,518.5,-1847.5,721.0,1
-387.75,-355.5,-1098.5,417.5,-439.0,1143.25,-2005.0,422.0,1
-889.0,-298.5,-974.0,769.75,-61.25,1882.25,-1834.75,227.25,1
-1739.25,-573.25,-515.75,773.0,882.75,2093.75,-1498.0,333.75,1
-991.25,-575.0,-576.5,557.25,270.5,1417.25,-776.5,189.5,1
-81.0,-469.25,-774.25,778.5,-629.75,1177.0,-328.25,-53.5,1
379.75,-455.5,-662.5,726.75,-732.5,1155.5,-306.5,-233.5,1
642.5,-277.75,-723.0,544.75,-603.5,332.25,-617.5,-427.75,1
604.25,-118.0,-572.25,420.5,-430.5,-89.25,-1479.25,-389.25,1
279.75,68.5,-575.5,194.0,-85.5,138.25,-1794.75,-399.0,1
-527.25,38.0,-420.5,251.25,-133.25,238.5,-1083.25,-337.0,1
-1041.25,2.0,-83.75,293.5,-200.0,282.5,-414.75,-154.25,1
-1303.0,-69.5,-42.5,484.5,-142.75,95.5,-58.0,462.5,1
-1432.5,-184.75,-280.5,296.0,-141.75,-7.25,47.75,1172.75,1
-628.25,-44.0,-634.75,109.0,-74.0,60.25,314.0,2071.0,1
324.0,93.5,-759.25,237.25,68.75,356.0,801.25,2312.0,1
648.25,281.75,-834.5,202.25,210.5,506.75,983.5,2298.0,1
735.25,336.75,-709.25,-208.0,10.5,209.0,1140.0,2004.25,1
879.5,414.75,-423.75,-1049.25,-167.75,172.75,637.5,1557.0,1
911.75,545.0,99.5,-1360.0,-277.75,394.5,-110.5,1349.75,1
1356.5,675.25,611.0,-995.5,-417.75,409.75,33.25,1133.75,1
1461.75,827.0,629.75,-804.25,-485.5,-177.0,755.5,992.0,1
1539.75,992.0,584.5,-921.0,-367.5,-975.0,1252.75,926.25,1
1202.5,910.5,764.75,-839.0,-244.0,-1324.0,1259.75,804.5,1
690.5,727.5,985.25,-657.25,-192.75,-1460.25,1539.25,509.0,1
537.0,665.0,927.5,-758.25,-219.5,-971.5,2028.5,295.25,1
-40.75,602.5,345.0,-868.0,-285.25,-996.75,1691.25,298.5,1
-505.25,608.5,-368.0,-834.0,-178.75,-1440.25,1547.5,408.75,1
-480.0,632.75,-901.25,-680.25,247.25,-1224.25,1102.5,500.75,1
-479.75,563.5,-968.5,-454.75,747.5,-539.75,1300.5,467.25,1
-503.0,398.25,-1214.25,-189.5,960.0,-50.0,1699.25,318.75,1
-440.25,135.5,-1417.75,73.5,943.75,337.25,1569.5,91.25,1
-436.25,-72.0,-1047.75,172.75,328.25,1110.75,1173.75,34.0,1
332.25,-199.25,-685.5,162.25,-1150.75,1010.25,531.0,-45.75,1
1375.75,-229.75,-94.5,459.25,-1229.0,138.25,392.0,-399.5,1
1010.25,-511.75,965.75,1042.75,-1311.25,-274.5,156.75,-625.25,1
46.25,-1253.0,1591.75,1289.0,-1321.0,214.25,-64.75,-635.75,1
-520.25,-1310.75,1793.25,1085.5,685.25,419.0,-162.25,-524.25,1
-553.0,-895.5,1391.5,237.5,661.0,237.5,276.5,-608.25,1
-1142.25,-753.75,1102.75,-241.5,421.0,-101.0,1276.5,-663.0,1
-1453.25,-640.0,1162.75,-418.5,98.5,594.75,1223.5,-628.5,1
-659.5,-437.5,1273.0,-331.5,-767.0,1199.5,1237.25,-596.25,1
-126.5,21.5,1484.75,28.5,-2792.75,1140.5,1344.75,-501.75,1
332.5,827.75,1300.25,-34.75,-2793.75,803.75,1296.0,23.0,1
74.25,650.75,1200.0,-319.5,-2677.5,315.25,1196.0,737.75,1
-816.75,515.75,1314.5,-235.0,-1777.75,84.5,309.5,704.5,1
-1142.0,596.25,895.5,-589.75,-650.25,-2.75,330.5,593.5,1
-1177.5,556.75,475.25,-551.0,-434.25,395.0,379.5,685.0,1
630.75,405.0,-5.5,-307.25,484.5,1183.0,958.75,889.5,1
683.75,175.5,-447.5,-132.75,1687.75,1452.75,1537.0,1299.5,1
946.0,89.25,-653.5,-91.5,2164.5,1772.75,1625.25,1685.75,1
1073.25,24.25,-1069.75,32.5,1340.25,1874.25,1747.75,1634.0,1
1186.5,37.5,-1660.5,96.75,2629.25,1616.5,1497.25,1134.25,1
1199.5,140.75,-1473.75,157.0,1275.5,531.5,1148.0,-41.25,1
1221.5,280.5,-1284.5,105.25,519.75,267.5,431.75,-574.75,1
1329.75,316.25,66.25,-85.5,393.75,576.25,-298.0,-549.25,1
1397.5,24.0,-77.75,-316.75,244.0,1050.5,-809.0,-652.0,1
959.5,-305.0,-810.75,-17.5,182.75,1217.75,-351.75,-769.75,1
479.25,-333.75,-1309.25,471.5,232.5,684.25,-624.5,-1082.5,1
32.5,-442.75,-2071.5,382.0,329.25,642.5,-1006.5,-1690.5,1
-413.0,-755.75,-2089.0,513.0,517.5,840.0,-1192.75,-1918.0,1
-892.0,-880.75,-574.0,281.25,822.75,1138.5,-12.75,-1829.75,1
-1242.25,-1010.5,300.75,261.25,1532.25,2127.5,-273.25,-1828.0,1
-1843.25,-1293.25,1531.25,1071.75,2246.0,2971.25,-166.0,-1280.0,1
-1770.25,-838.75,1653.0,957.25,1467.0,1858.75,326.0,-756.0,1
-1136.75,-21.75,1291.5,121.75,1072.75,20.25,638.0,-531.5,1
-957.75,147.25,1009.75,7.25,320.0,-526.25,1800.25,-26.75,1
-900.0,93.75,-280.0,148.25,-187.0,-459.75,1829.25,144.25,1
-1234.0,-323.5,-615.0,125.75,-215.5,-35.75,1822.5,147.0,1
-1148.75,-67.0,-684.5,-121.0,-584.75,-1344.5,1275.5,166.25,1
-960.25,301.75,-1108.75,5.25,-751.5,-1140.25,-107.75,141.75,1
-951.5,473.0,-1299.5,-83.25,-721.75,-652.75,-37.75,151.25,1
-549.0,525.0,-98.75,-230.5,-734.5,-972.5,-37.5,94.0,1
-236.0,259.0,373.25,-111.0,-575.25,-1130.75,-3.75,109.5,1
53.75,330.75,322.5,-93.75,-547.25,-704.0,18.0,64.25,1
295.0,280.25,299.0,-34.5,-1330.75,-568.25,23.5,51.25,1
156.0,95.75,441.75,-25.5,-2344.25,-1112.75,50.25,424.5,1
-133.0,-190.25,540.75,165.75,-2155.25,-808.25,37.0,1946.75,1
-365.5,-373.25,804.0,215.75,-2139.25,-693.5,-931.5,1771.25,1
-289.5,-276.75,530.0,-1.5,-2296.5,-812.75,-1995.5,1104.5,1
-202.0,-290.75,-358.5,90.0,-2271.0,-1160.0,-2007.5,1372.75,1
-388.25,-265.25,-1060.0,418.0,-1653.0,638.0,-1991.5,1693.75,1
-603.0,-125.0,-1143.5,54.25,-112.5,200.75,-1956.5,1299.5,1
-474.0,-139.5,-979.5,-167.0,229.25,199.25,-1970.0,78.75,1
-58.25,-212.75,-307.75,245.0,1707.0,821.0,-1961.5,-177.5,1
512.0,214.75,-88.0,-105.5,2118.5,118.5,-1690.25,-175.0,1
878.0,372.25,-420.75,463.5,2968.0,273.25,-1845.0,-202.75,1
302.75,-136.25,-737.5,1000.25,3025.75,1294.5,-2036.75,-177.75,1
328.5,-111.0,-1117.0,497.5,2906.5,1243.25,-1870.25,-120.25,1
-82.0,-369.0,-1121.5,276.0,2947.75,623.75,-1719.5,-32.0,1
-328.0,-73.0,-1676.25,-377.5,1800.0,289.25,-1525.25,360.25,1
-78.5,323.0,-1321.0,-181.5,980.25,457.75,-1072.5,-940.0,1
-173.25,190.25,-460.75,-355.0,80.25,357.5,-131.5,-1218.75,1
287.0,209.25,413.5,-660.0,-283.75,416.25,921.75,-1326.0,1
177.25,-87.75,841.75,-144.25,-205.25,277.25,1075.0,-1585.0,1
325.0,-85.5,851.75,-262.75,-369.75,-1653.75,1142.0,-1831.25,1
231.25,-89.25,552.5,-34.0,-340.5,-1306.5,1146.75,-1895.25,1
502.25,164.5,11.5,-282.0,-537.5,-730.25,915.25,-2043.0,1
756.75,388.75,-204.5,-231.0,-366.5,-574.75,337.0,-2098.75,1
743.25,629.25,-293.0,-440.0,-516.75,-356.25,-405.5,-2190.25,1
842.5,850.75,-443.5,-723.0,-483.25,51.25,-581.0,-2117.75,1
622.25,962.0,-521.0,-611.5,-227.5,68.25,-251.75,-2043.25,1
367.25,1175.5,-594.75,-148.25,289.75,165.75,273.25,-2076.25,1
-359.5,691.5,-425.75,435.5,862.25,418.5,1014.0,-2070.25,1
-494.25,357.5,-343.25,281.5,-206.5,80.25,1252.75,-1962.0,1
10.5,451.25,-468.75,107.25,-1236.0,-18.5,1028.25,-1792.5,1
27.0,56.5,-494.75,-179.25,-1742.75,39.75,690.75,-1666.0,1
439.5,87.0,-533.5,-537.5,-1789.75,-141.0,565.5,-951.5,1
141.25,-136.5,-359.5,482.75,-1378.0,-3.25,689.25,-162.25,1
-235.0,4.5,-261.75,438.0,-1943.0,-174.5,1076.75,721.75,1
387.5,450.25,-244.75,-163.75,-2348.5,-198.0,1361.25,1011.0,1
529.5,203.75,-44.75,196.25,-1764.0,-280.25,1298.25,908.75,1
373.75,-253.25,87.5,495.0,-1377.75,-474.75,999.0,883.25,1
273.75,-539.0,148.25,-41.5,-1917.75,-485.25,122.75,520.0,1
526.0,-219.0,228.5,-685.25,-2601.75,-771.75,-504.5,169.0,1
564.75,48.5,300.0,-643.5,-2708.75,951.75,-594.0,222.25,1
522.75,215.5,322.75,-684.25,-1990.25,820.0,-584.0,353.5,1
6.25,-196.0,303.5,-435.0,198.75,833.5,-642.0,571.0,1
-308.25,-112.25,187.5,-702.25,311.5,749.5,-574.0,486.0,1
158.0,375.0,85.5,-1178.75,-343.25,504.5,-339.75,359.0,1
118.5,215.5,-7.5,-474.25,346.25,431.25,-104.0,367.0,1
-853.75,-550.0,-11.5,621.0,539.5,258.75,-40.25,420.25,1
-794.5,-511.25,-124.25,223.25,77.0,-86.5,-74.75,502.0,1
-263.0,-279.75,-130.0,-34.25,-32.75,-107.0,-373.25,387.75,1
-11.25,-166.25,-41.0,-972.5,-939.5,-303.0,-753.75,464.25,1
650.0,399.5,4.5,-1591.5,-491.75,-48.5,-666.25,449.75,1
-315.0,-623.25,462.25,206.25,591.0,508.0,-32.5,398.0,1
-796.25,-1022.75,542.5,22.5,290.0,659.5,506.75,655.0,1
-102.0,-513.0,359.0,-600.0,-480.25,640.5,626.75,956.5,1
614.0,37.25,216.0,-274.75,-745.5,391.0,239.75,920.75,1
624.5,79.25,-77.5,-241.75,979.75,498.75,-241.75,743.75,1
-198.25,-781.0,171.5,1079.75,2904.5,815.25,-257.25,1090.25,1
-165.75,-1095.0,339.75,2249.5,2862.5,-1391.0,378.75,1646.5,1
189.5,-843.5,260.5,1679.0,2106.0,-1917.0,1256.25,1760.25,1
1060.0,216.0,78.0,667.25,1375.0,-2392.0,1586.0,1708.5,1
1146.5,693.25,-163.5,579.25,1464.75,-2448.5,1528.0,1638.5,1
848.75,550.75,-167.25,613.0,523.25,-2440.5,1613.0,1382.75,1
566.75,530.75,-250.0,-259.25,-921.5,-2497.25,1795.75,1112.25,1
238.5,573.5,-156.25,-997.0,-1360.0,-2421.25,1627.0,934.75,1
-152.25,632.0,-55.5,-1097.25,-2046.0,-2335.0,1152.5,529.25,1
-316.5,566.0,-38.75,-1231.5,-1747.25,-2258.25,467.5,-220.0,1
-482.75,439.75,-107.5,-1389.0,-1508.75,-2004.75,27.75,-672.0,1
-557.0,346.0,-125.5,-2240.5,-1362.0,-1508.25,470.25,50.25,1
-560.75,204.5,14.5,-2369.5,-1229.75,-1002.0,1493.5,36.75,1
-230.25,127.5,192.5,-1400.75,-1293.0,-486.5,1735.75,28.75,1
-227.75,14.75,464.0,-716.25,-1279.75,-179.0,1194.75,-135.75,1
-647.25,-44.75,421.75,-566.5,-768.75,-208.25,508.25,-759.5,1
-485.75,-39.25,540.25,328.75,560.0,-202.75,223.0,-1462.75,1
-613.25,-182.25,614.75,1086.75,503.0,291.25,-29.75,-928.5,1
-718.0,-330.75,382.75,1460.0,424.0,905.25,-1022.25,-302.25,1
-639.75,-401.5,294.0,1414.5,483.0,1385.75,-1823.5,105.0,1
-739.0,-356.75,202.5,1136.0,670.0,1673.0,-1748.25,90.5,1
-818.5,-263.25,310.25,1206.75,640.0,1756.0,-830.75,86.75,1
-854.5,-132.0,350.5,1095.25,101.25,1522.0,129.75,94.5,1
-774.25,-16.25,282.75,683.5,-143.0,1400.25,1272.25,174.0,1
-707.0,43.5,259.75,343.5,674.75,1395.75,1744.5,179.0,1
-551.25,89.75,208.5,23.25,1776.75,1104.75,904.0,139.5,1
-401.5,32.75,175.5,-10.25,1895.0,1002.25,123.5,228.0,1
-224.75,-60.25,123.25,49.25,1968.25,1057.25,122.75,309.0,1
-119.25,-48.75,92.75,163.0,2050.5,1330.75,-947.25,291.5,1
31.5,11.25,-37.0,253.0,2107.5,1552.25,-983.5,259.0,1
115.5,-3.0,-225.25,239.25,2144.5,1549.0,-745.0,118.75,1
110.0,-10.5,-322.0,223.75,2215.0,1694.25,-765.25,-65.25,1
163.75,-38.0,-263.5,416.5,2269.75,1828.0,-507.0,-223.5,1
215.5,-91.5,-210.5,578.0,2256.25,2123.25,-640.0,571.75,1
221.75,-147.5,-273.5,382.75,2199.5,2463.75,-1412.0,1088.25,1
188.25,-202.75,-349.5,216.5,2111.75,1332.0,-2136.0,1266.0,1
221.75,-177.0,-260.5,366.25,1834.5,522.5,-2435.0,1664.75,1
334.75,-198.75,-9.0,533.75,1207.25,736.75,-1839.5,1722.0,1
539.5,-280.5,20.5,163.25,507.5,1726.5,-1014.0,1740.25,1
628.0,-299.25,-46.5,141.5,548.75,1637.5,-1087.75,1312.5,1
534.0,-309.25,-224.25,106.5,513.0,1119.5,-1090.25,559.25,1
528.25,-255.25,-316.25,-281.25,505.25,1222.0,-1164.25,90.5,1
576.0,-219.75,-398.5,-366.0,412.25,1183.5,-2082.0,-789.75,1
538.5,-189.0,-565.0,-531.75,-1421.25,371.0,-1992.0,-1134.25,1
525.75,-57.0,-424.25,-323.5,-1847.25,1448.0,-1655.5,-1271.0,1
526.0,103.75,-301.5,74.0,-1934.75,2409.25,-1699.25,-1099.75,1
396.5,150.75,-136.75,362.25,-2054.75,1954.25,-2180.25,-559.5,1
144.25,116.0,-25.25,475.75,-2122.25,1861.5,-1892.75,-519.5,1
234.25,219.25,-163.75,474.0,-2224.75,2430.0,-1704.0,-406.0,1
431.5,285.25,-398.75,469.75,-2370.5,1971.25,-2383.5,-316.0,1
282.25,155.5,-587.5,295.25,-2174.5,1657.75,-2332.5,-548.0,1
-516.75,-198.5,-349.0,595.0,-1662.25,2385.25,-1905.25,-488.75,1
-951.75,-198.5,101.75,975.75,-1660.25,2572.5,-673.75,-103.0,1
-884.5,-162.75,125.5,1141.25,-1837.25,1490.5,-803.25,520.0,1
-873.25,-349.75,63.5,1302.25,402.75,931.5,-810.0,772.25,1
-786.25,-416.5,293.5,831.5,837.0,818.0,-509.25,732.75,1
-610.0,-309.75,356.25,73.0,982.5,-687.0,505.75,1065.75,1
-457.25,-228.25,451.5,72.75,909.0,-2575.0,1069.25,1121.0,1
-94.75,-233.5,561.75,-256.75,1068.75,-2863.25,1450.25,1122.75,1
-60.0,-205.5,357.5,-1163.25,1223.75,-2192.75,2285.75,1148.0,1
-33.25,-290.75,553.5,-720.5,410.25,-2445.75,2559.0,1170.0,1
-18.25,-341.25,650.5,451.75,34.25,-2912.25,2472.5,1202.0,1
351.5,-130.0,236.5,-65.25,-485.25,-2529.75,2383.25,1377.0,1
92.75,-114.5,20.75,31.5,-359.5,-2456.25,2454.25,967.75,1
-40.75,-24.25,-68.0,-261.25,-201.75,-2420.75,2374.75,991.75,1
-138.0,-91.25,82.5,-495.25,-562.75,-2134.75,2353.75,1215.0,1
452.25,364.5,109.75,-444.75,-708.5,-2446.75,2175.25,1036.5,1
495.75,300.25,-48.25,7.0,163.0,-3089.75,2079.75,905.25,1
-72.25,82.5,-175.25,-252.0,-680.25,-3218.5,2006.5,747.5,1
401.75,373.75,-23.5,-1392.75,-1351.75,-3240.5,1997.0,364.5,1
294.5,521.25,516.0,-475.25,-1800.0,-3290.0,2064.75,-189.0,1
-107.25,811.75,802.0,-163.75,-1098.0,-2733.75,1988.0,-933.5,1
-1569.25,293.25,874.0,539.0,178.25,-2275.5,1959.75,-1457.5,1
-1504.0,427.5,338.5,111.75,1159.75,-1450.5,1977.0,-1827.75,1
-1014.25,528.5,-300.0,-367.0,1841.5,-66.25,1826.75,-1842.5,1
-1356.0,153.25,-661.75,-55.25,1679.0,429.0,1357.5,-1847.75,1
-503.25,377.75,-807.75,-539.75,-86.5,-49.75,990.5,-1855.5,1
738.25,693.75,-779.75,-493.0,-449.0,-93.0,522.5,-1460.0,1
1270.75,404.25,-643.75,428.5,491.25,346.75,-181.25,-1096.75,1
578.75,154.0,-458.5,3.25,-2288.75,494.5,-1273.5,-1118.5,1
1784.25,1285.75,-579.0,-1091.75,-2750.0,530.0,-1848.25,-1416.25,1
771.75,168.75,-15.25,1209.25,-1192.0,1482.25,-2378.5,-1528.0,1
175.0,-228.5,-91.0,1517.75,-1301.0,1546.75,-2345.25,-1534.25,1
725.0,134.0,-471.5,612.25,-1730.0,2127.0,-2094.25,-1488.25,1
37.25,-597.5,-184.25,1083.0,-1562.0,2934.0,-2391.0,-1268.75,1
100.75,-356.75,-376.0,-224.25,-2525.0,2525.0,-2247.75,-1185.0,1
-75.0,-424.25,-263.0,116.25,-964.75,2563.0,-2299.75,-1218.0,1
-1090.5,-1059.0,-71.5,534.0,419.0,2558.5,-2248.75,-1112.0,1
-848.25,-807.5,-8.25,652.0,-243.25,2411.0,-2228.5,-891.75,1
-225.75,-458.75,11.75,803.75,-356.25,2300.5,-2143.0,-526.75,1
-317.0,-87.25,55.0,508.25,-296.25,2326.75,-2093.25,-575.75,1
-841.75,119.5,191.25,-541.75,-221.0,2313.25,-1835.5,-1043.25,1
-827.75,269.0,253.0,-1115.0,-71.75,2332.75,-1654.0,-1349.5,1
-243.0,627.0,365.25,-469.25,75.75,2722.5,-1869.25,-1285.0,1
-273.75,450.5,185.0,-803.0,2245.5,2957.75,-1945.25,-1371.25,1
-181.25,205.0,39.75,-1310.0,1630.0,2672.75,-1847.75,-1497.5,1
729.25,192.0,82.25,-444.75,994.0,2252.25,-1790.5,-1508.25,1
718.75,-372.5,163.75,1120.5,504.0,1476.25,-1723.5,-1488.0,1
1026.0,-305.0,62.5,1269.0,102.5,479.75,-1602.5,-1269.75,1
838.5,-658.75,28.25,405.5,738.25,102.0,-1570.5,-873.75,1
488.25,-859.5,10.5,-200.25,685.0,-83.75,-1482.5,-552.0,1
532.75,-758.25,-126.0,-1165.75,1426.75,153.75,-1416.25,-493.25,1
876.5,-434.25,-31.5,-2322.75,1703.25,249.75,-1389.0,-432.5,1
430.25,-310.5,305.25,-2002.5,2214.0,164.75,-1426.75,-365.0,1
-550.75,-579.0,779.25,-812.75,1976.25,-1273.5,-1406.0,-270.0,1
-367.5,-103.25,742.5,-679.0,1646.75,-1341.25,-1390.0,-81.25,1
-639.0,-43.0,450.75,-145.0,1238.25,-1563.0,-1391.0,-87.0,1
-1006.5,58.25,240.25,158.75,499.75,-1661.5,-1356.25,-259.5,1
-1290.5,121.75,138.75,-131.5,-66.75,-1791.25,-1372.25,-363.75,1
-1101.0,246.0,-82.5,-117.75,-1408.75,-1779.0,-1298.75,-350.75,1
-531.0,287.5,-383.75,-513.5,-2096.5,-1701.5,-1198.0,-390.25,1
-42.0,529.0,-523.5,-1500.5,-2009.25,-1665.5,-1118.5,-402.0,1
247.25,584.25,-496.25,-1133.5,-557.5,-1612.5,-1141.0,-478.25,1
119.5,369.75,186.75,-701.5,81.25,-1628.0,-1180.25,-554.5,1
130.5,419.5,978.25,-517.25,61.25,365.0,-1159.75,-720.25,1
-179.75,371.25,790.25,46.5,-150.5,320.5,-606.5,-589.25,1
143.5,664.0,-471.0,593.0,-632.5,163.75,-230.5,-215.25,1
468.75,729.0,-1075.0,896.75,-167.0,203.75,350.5,-126.5,1
-31.0,257.0,-1109.25,1549.5,417.25,385.75,398.0,-250.0,1
-475.5,-78.5,-1045.25,818.25,-741.25,322.75,-43.5,-423.5,1
-139.75,193.75,-1056.5,-551.75,-1929.75,288.5,-466.0,-672.0,1
152.75,264.5,-863.0,-771.75,-1850.75,355.75,-484.25,-715.75,1
76.0,273.75,-394.75,-197.75,-1077.75,355.75,-374.25,-315.5,1
-570.5,94.0,88.75,651.5,-46.25,332.25,270.25,172.5,1
-545.75,162.25,476.5,-164.5,-294.0,113.5,1086.75,654.5,1
185.25,285.0,597.25,-463.75,147.0,130.0,1096.25,759.5,1
357.5,-84.0,716.75,424.75,284.25,130.0,1063.25,1055.25,1
706.75,-14.0,446.0,904.5,-68.0,215.75,1302.75,1412.5,1
311.5,-214.0,203.25,223.0,416.25,420.25,1498.25,1440.0,1
45.25,-216.75,263.5,-667.25,201.25,440.5,1626.75,1652.0,1
168.0,-7.0,461.5,-76.75,149.25,392.5,1768.25,1384.75,1
193.0,310.75,465.5,953.0,78.0,-1194.5,1918.5,1121.25,1
-61.5,472.0,274.0,1090.75,117.75,-1510.5,2007.0,769.75,1
-255.0,437.5,422.0,861.25,-425.0,-1456.25,2046.75,260.25,1
-11.75,394.25,781.5,797.5,-540.25,-1382.25,2093.25,245.75,1
182.75,242.25,699.5,295.5,-647.5,-1463.0,2206.0,433.75,1
402.75,2.75,-347.25,89.5,-478.75,-1421.0,2209.5,667.75,1
125.75,-574.25,-849.0,-306.25,-375.5,-1181.75,1966.75,642.0,1
-118.25,-691.75,-642.25,-819.25,593.25,-1062.75,1544.5,458.0,1
-408.5,-644.0,-373.25,-488.25,1937.25,-1014.0,1241.0,195.75,1
-74.5,-405.0,159.0,-148.5,1800.5,-1097.5,1007.75,-80.0,1
328.75,-182.0,728.5,-24.25,2086.25,-1169.5,670.0,-55.0,1
308.5,-91.75,740.0,-99.25,2110.0,-1191.25,664.0,-4.5,1
564.0,37.75,-298.5,-246.0,2116.5,-1281.25,844.75,51.5,1
398.75,-41.0,-880.0,-523.0,2223.25,-1387.25,858.0,2.5,1
143.75,-75.75,-672.25,-280.0,2035.75,-1393.0,877.0,-291.0,1
-10.0,-30.75,-91.0,-159.25,2164.5,-1389.75,973.25,-221.5,1
-51.0,121.5,205.0,-153.5,2105.25,-1385.25,1097.75,-116.25,1
-92.25,128.5,-275.5,250.75,1942.75,-1216.0,1204.5,-175.25,1
99.0,108.5,-266.5,-656.5,1746.5,-880.5,1230.75,-149.25,1
214.25,-21.5,-98.5,-1354.25,1885.0,-965.0,1247.25,-62.25,1
103.75,-75.75,237.75,-1330.5,1586.0,-1667.25,449.25,-139.0,1
60.75,82.75,608.5,-694.0,1580.75,-1443.0,668.75,-166.0,1
217.5,314.25,126.75,-332.75,1821.25,-612.5,-38.5,-117.75,1
245.25,170.75,-289.0,-297.0,2797.5,452.25,354.25,-426.5,1
-468.0,-486.0,8.75,668.25,3125.5,606.0,1172.75,-639.75,1
-527.0,-261.0,56.5,719.5,2803.0,630.0,1163.0,-464.75,1
-313.25,-29.25,-21.75,810.25,3046.25,1375.0,1083.75,-167.25,1
-450.5,-118.75,89.25,587.75,2742.25,1379.25,1015.0,-91.5,1
-182.25,74.25,-117.75,359.25,2565.0,1281.75,868.75,234.5,1
-32.75,24.75,-295.5,836.75,2820.0,1345.25,841.25,690.5,1
18.0,-50.75,-261.75,633.75,1954.75,1365.5,809.5,788.75,1
88.25,-44.0,-87.25,299.0,848.25,1419.5,116.75,832.75,1
91.25,26.0,-75.75,-16.25,9.5,1395.75,-148.5,707.0,1
107.75,-11.0,-15.25,-619.5,-263.75,1370.5,6.75,845.25,1
79.0,-47.25,-17.5,-650.0,-354.5,1388.25,356.5,775.75,1
91.5,-81.0,-67.0,-613.0,-163.0,1375.0,143.75,-288.0,1
125.25,-157.75,253.5,831.25,7.25,1387.0,-519.0,-721.5,1
135.5,-301.0,288.75,1160.5,195.75,1293.25,-872.75,-680.25,1
-59.25,-386.75,196.0,1208.75,-464.25,1243.0,-1134.0,-561.25,1
-220.0,-254.5,95.0,928.5,-920.75,1441.75,-1283.25,-484.75,1
-135.5,-207.75,-23.25,368.0,-1309.25,1941.0,-1550.0,-355.0,1
-67.0,-112.0,159.0,175.0,-2045.5,2498.25,-1605.25,-374.25,1
-77.75,-11.25,322.5,-45.75,-1946.75,2437.0,-1293.0,-313.25,1
-107.75,46.25,353.25,361.0,-2152.75,2435.0,-1011.25,30.0,1
-89.25,155.5,154.5,220.0,-2413.25,2353.75,-941.0,323.75,1
-193.0,114.75,-68.5,167.25,-2737.25,2061.5,-857.75,5.75,1
-224.5,72.75,86.75,317.0,-2532.0,1735.75,-208.75,-412.5,1
-209.0,50.5,164.25,306.25,-2262.25,918.0,935.75,-338.5,1
-147.5,55.75,233.5,415.0,-2431.5,-99.5,1160.5,-520.25,1
-21.25,31.5,254.75,285.0,-2359.0,-853.75,952.75,-1073.5,1
-51.5,3.75,-59.0,160.25,-2282.25,-1603.25,699.25,-1542.25,1
-228.25,-1.25,-105.0,262.25,-2157.5,-1439.25,628.25,-1534.75,1
-359.75,21.25,-60.0,18.25,-2510.0,-1402.5,783.5,-1549.25,1
-78.0,200.0,-111.25,-701.75,-2715.0,-1237.25,752.25,-1536.75,1
137.25,230.0,-54.75,-1126.75,-2395.75,-1139.0,583.0,-1437.75,1
74.5,108.0,2.75,-1074.5,-1927.25,-1182.0,690.75,-1408.5,1
-140.0,22.0,-60.75,-971.25,-1687.5,-1497.0,919.25,-843.75,1
-120.75,44.75,-181.0,-596.5,-1735.5,-1903.0,1171.75,-645.25,1
41.25,135.0,-251.5,120.25,-1233.5,-1924.5,1184.0,-678.25,1
-46.25,146.75,-185.0,112.25,-377.25,-1666.5,858.25,-558.0,1
-3.0,108.0,49.25,20.75,267.25,-1599.5,495.5,-508.25,1
6.75,91.75,219.0,72.25,350.0,-1469.75,-91.0,-532.25,1
40.25,188.5,240.25,-377.5,-81.75,-1211.25,-1260.75,-392.25,1
457.75,429.75,183.75,-837.0,-479.75,-880.0,-1506.0,167.5,1
607.5,574.75,262.5,-485.0,-347.75,-220.5,-1331.0,532.75,1
493.25,509.0,264.0,-108.25,77.0,366.0,-1272.75,1196.25,1
160.0,185.25,-272.25,287.75,859.5,700.75,-1434.75,1396.25,1
-535.75,-198.5,-447.75,1301.0,854.25,1030.0,-1429.5,1319.0,1
-893.75,-376.75,-399.0,1661.0,455.75,1234.5,-567.0,1554.5,1
-737.75,-376.25,-986.25,1108.5,148.25,1434.0,1057.0,1642.75,1
-330.25,-264.75,-1113.25,-83.0,-529.5,1360.0,1407.0,1590.0,1
-167.0,-307.75,-470.0,-557.5,-215.0,1433.5,1597.75,1585.75,1
-606.75,-726.25,119.25,320.5,763.0,1254.0,1707.0,1531.0,1
-819.25,-949.0,361.5,628.25,1168.75,1015.25,1609.75,1401.75,1
-761.75,-819.25,-45.0,368.5,943.5,1008.25,1276.0,1422.5,1
-855.75,-755.25,-314.0,840.5,359.0,1071.5,857.75,1445.5,1
-839.0,-502.25,-94.25,567.5,-77.25,932.5,573.0,1329.5,1
-658.75,-38.75,190.5,165.5,-179.25,250.5,517.25,1219.75,1
-404.5,313.5,614.5,417.5,-289.5,215.75,799.25,1301.5,1
-304.5,235.5,504.5,170.25,-632.5,-148.0,1071.5,1343.5,1
-312.5,138.25,-170.5,257.25,-1053.5,-1355.25,1005.5,1352.75,1
-329.0,4.0,-500.75,232.25,-1643.0,-1801.75,789.75,1303.25,1
-174.25,25.75,-77.5,-81.75,-2117.0,-1862.0,1030.25,1192.75,1
383.0,266.5,910.75,-475.75,-2047.0,-1581.75,1373.5,1179.0,1
672.25,232.75,943.5,-479.25,-1719.75,-1699.75,1264.0,1143.25,1
542.5,60.0,897.75,-81.75,-1437.75,-1868.0,1112.0,1234.0,1
494.75,-12.0,234.25,-226.25,-1706.25,-1956.5,913.0,1219.25,1
779.75,201.0,-257.5,-370.0,-1552.75,-1984.25,770.0,1200.0,1
636.5,84.75,-45.25,-364.75,-691.25,-1843.75,494.75,1069.0,1
512.5,-46.5,59.0,-556.0,-429.0,-1852.5,-471.5,899.5,1
566.5,103.5,-11.5,-664.5,175.5,-1878.0,-1204.5,922.75,1
500.0,353.25,1.25,-586.5,1028.25,-1773.75,-1009.5,936.0,1
306.75,461.5,22.25,-488.0,1700.5,-1549.5,-863.0,1005.25,1
26.25,380.75,-133.75,-433.0,2034.25,-1563.75,-904.5,889.5,1
71.75,365.25,-341.25,-288.0,2160.5,-1861.0,-1095.25,747.25,1
453.0,376.5,-288.25,-516.25,1820.5,-1903.75,-1136.75,777.75,1
1209.0,585.0,-312.5,-689.0,1554.5,-1902.25,-975.25,761.0,1
1196.25,344.25,-361.0,-275.5,2160.5,-1676.25,-997.0,602.0,1
467.5,-162.0,-297.25,22.0,2068.5,-1596.5,-1003.25,639.75,1
281.25,-195.5,-283.0,54.75,1705.75,-1629.25,-989.5,753.75,1
2.5,-424.0,-37.0,449.5,2219.5,-1140.75,-659.25,525.75,1
-381.5,-479.5,43.25,552.25,2662.0,15.0,-342.75,346.75,1
-450.5,-353.5,85.5,661.25,2992.5,1030.0,-376.5,264.25,1
-761.75,-528.5,181.5,760.25,2881.75,1149.25,-541.0,73.75,1
-730.75,-326.5,179.0,611.5,2297.5,1211.25,-795.5,85.0,1
-857.25,-214.0,179.25,678.5,2328.75,1070.5,-539.25,272.0,1
-864.5,-12.5,114.5,435.75,2485.5,767.25,-170.25,385.75,1
-868.0,-28.0,114.75,367.25,2171.75,690.75,-174.0,232.5,1
-768.75,70.25,25.25,91.25,1017.5,775.0,-474.75,354.75,1
-499.25,153.25,-20.5,12.75,303.0,784.5,-743.25,735.0,1
-326.0,61.25,-34.75,-43.5,28.5,859.0,-668.75,606.5,1
-63.0,179.5,-44.0,-141.75,151.5,477.0,-515.75,507.0,1
-298.25,38.25,-3.0,39.75,786.0,95.25,-514.75,395.75,1
-434.75,-79.0,10.25,112.75,1042.0,-114.75,-928.0,218.25,1
-319.25,-181.5,-29.5,-17.25,454.0,273.0,-1650.0,300.25,1
76.25,-174.5,-91.5,-75.75,482.0,1334.25,-2107.0,540.0,1
349.0,-306.25,-34.25,105.25,729.75,2194.75,-1905.0,811.0,1
575.25,-264.0,43.75,-22.0,872.25,2200.25,-1371.25,970.75,1
657.0,-73.25,39.0,-75.0,1076.75,2265.5,-633.75,868.25,1
215.75,-66.75,-16.25,-30.0,1390.5,2341.0,-186.0,580.0,1
183.5,66.0,-60.0,-215.25,1058.5,2391.25,-399.0,419.5,1
140.25,138.0,-90.75,-317.0,1028.75,2263.0,-529.5,275.5,1
-190.25,149.0,-66.5,-246.0,981.75,2301.75,-924.5,94.5,1
-610.75,82.75,-36.0,-182.5,418.75,2228.75,-792.5,-148.25,1
-756.25,128.75,38.5,-323.0,48.0,2110.5,-474.25,-510.25,1
-441.25,109.0,129.75,-339.25,226.5,2023.75,-401.0,-666.5,1
-263.75,28.0,166.75,-273.5,540.25,1427.75,-232.5,-899.75,1
311.5,137.25,19.75,-397.0,446.0,668.5,348.75,-1170.0,1
524.25,135.5,-269.5,-423.25,631.25,692.25,1034.5,-1246.25,1
573.0,89.75,-200.0,-369.0,747.75,856.75,1047.5,-1248.0,1
1110.75,111.0,-11.5,-266.25,533.5,665.0,869.5,-1417.0,1
1158.25,129.0,-7.75,-282.75,227.75,243.25,691.25,-1544.75,1
988.5,146.25,-76.75,-233.0,169.5,-248.25,818.5,-1500.5,1
992.25,154.0,-282.75,-189.5,324.25,-348.25,1274.75,-1369.25,1
1230.5,266.0,-366.0,-300.25,236.75,-384.5,1631.0,-1188.25,1
1540.5,432.0,-429.5,-271.0,159.25,-385.75,1785.0,-939.25,1
1523.25,471.5,-540.75,-306.0,-55.25,-367.75,1912.0,-740.75,1
1206.0,505.75,-510.25,-295.25,-276.75,-280.75,2264.0,-658.0,1
590.0,404.0,-479.0,-218.0,-426.0,-191.75,1846.5,-605.5,1
150.75,384.75,-398.0,-300.5,-114.0,-16.0,795.25,-664.75,1
133.5,321.25,-98.75,-212.75,1674.75,-22.75,300.0,-839.25,1
-158.25,49.5,213.75,-159.5,1741.0,-414.25,407.0,-880.5,1
-295.5,-52.25,319.5,-121.75,1824.0,-695.0,226.5,-998.25,1
-466.5,-155.75,381.5,54.75,1499.0,-706.0,138.75,-1129.25,1
-676.5,-254.5,425.25,111.25,1703.0,-697.5,969.75,-1083.75,1
-700.75,-287.5,531.5,148.0,2144.25,-378.75,1662.75,-1094.75,1
-721.75,-144.75,554.25,110.25,2069.0,82.75,1677.5,-899.25,1
-377.0,64.0,550.25,13.75,1657.0,593.25,1481.25,-735.75,1
-73.5,162.0,532.75,-57.0,1553.5,797.5,1327.0,-808.0,1
120.25,272.75,319.0,-130.25,1775.5,728.75,1337.75,-989.0,1
269.75,300.75,79.5,-36.75,2212.25,729.0,1315.5,-1334.0,1
23.25,2.75,149.5,305.75,2935.25,700.25,1001.0,-990.5,1
-269.0,-212.0,355.5,276.0,2429.25,603.5,22.5,-309.75,1
-11.5,-20.5,212.75,110.0,1950.0,883.0,-804.75,-1.75,1
95.75,2.5,15.0,397.25,1916.75,1293.25,-1351.75,5.75,1
95.25,87.5,-122.75,244.0,1396.25,1033.5,-1090.5,29.25,1
187.25,173.0,-227.5,101.25,1232.25,349.75,-193.25,235.0,1
-7.0,30.25,-202.75,266.0,1371.25,173.75,480.0,624.25,1
-256.75,-129.5,-216.5,322.0,1489.75,24.25,534.5,772.75,1
-217.0,23.0,-443.5,-118.0,243.0,-274.25,376.25,881.75,1
97.75,435.25,-555.0,-363.25,-56.0,-767.0,394.75,881.25,1
-143.75,370.75,-440.0,-200.75,-176.75,-1378.75,366.25,840.25,1
-148.75,520.75,-509.75,-373.0,-2239.0,-2081.25,641.75,1110.75,1
62.0,514.25,-375.75,-367.75,-2072.75,-2439.0,862.5,1441.5,1
260.0,434.25,-190.75,-433.0,-2323.5,-2775.0,627.75,1390.5,1
382.75,520.25,-493.5,-477.0,-2175.0,-2320.0,198.5,1125.5,1
275.75,463.25,-962.5,-420.75,-1842.0,-1866.25,352.25,1112.75,1
158.75,420.75,-1147.25,-474.25,-1844.75,-1600.75,850.0,950.25,1
-350.5,258.0,-810.75,-382.25,-1481.0,205.5,892.0,835.75,1
-816.0,82.75,-323.0,-366.0,-1535.5,756.75,542.25,745.75,1
-1037.5,-120.5,250.25,-215.25,-1360.0,678.75,351.5,506.25,1
-1197.0,-269.75,794.5,-200.5,-1208.75,540.75,317.5,628.5,1
-1388.5,-382.25,935.5,-125.0,-1246.0,249.5,371.25,745.5,1
-1439.75,-521.0,904.0,-23.5,-1305.0,75.5,611.25,252.0,1
-1219.0,-464.5,921.5,66.5,-1424.5,727.5,443.25,0.5,1
-807.75,-388.0,882.25,183.0,-1650.25,1756.25,112.25,116.25,1
-159.0,-171.0,763.5,221.0,-1816.25,1577.75,-399.0,-110.75,1
369.0,-120.25,871.75,297.5,-1660.25,1377.25,-812.0,-477.0,1
566.25,-194.5,901.25,298.5,-1506.5,1353.5,-1370.25,-890.25,1
476.75,-261.5,885.5,360.0,-1328.75,1325.75,-2229.5,-1276.5,1
-81.0,-323.25,782.5,417.0,-1428.25,1338.5,-2616.0,-1331.0,1
-793.75,-416.75,502.75,524.75,-1511.75,1578.25,-2759.5,-1176.25,1
-1319.0,-765.75,389.5,676.75,-1027.25,2206.25,-1628.5,-828.0,1
-1549.5,-948.0,391.5,815.75,-274.75,2236.25,-759.5,-1150.25,1
-1520.75,-889.0,360.0,920.75,246.0,2122.25,-464.25,-968.75,1
-1526.5,-854.75,99.25,820.25,625.0,2057.0,149.5,-573.25,1
-692.25,-678.0,-75.5,502.25,560.5,1578.25,698.75,-573.25,1
639.0,-404.5,-320.75,211.0,494.75,1295.5,443.0,-318.75,1
728.75,-468.75,-337.75,224.25,271.25,1232.25,41.25,-423.25,1
849.5,-379.0,-203.0,179.0,25.25,1094.0,-556.0,-295.25,1
946.5,-402.0,-201.5,68.25,-50.0,928.5,-1466.75,-288.75,1
1009.75,-352.25,-126.5,-161.5,-131.0,604.25,-1755.0,-295.25,1
944.5,-348.25,-132.75,-436.25,-217.0,-21.5,-1056.0,-159.25,1
937.25,-33.25,-248.75,-1022.5,-747.25,-1735.0,765.25,-28.25,1
1473.25,759.0,-560.75,-1228.0,-763.75,-3137.5,2088.75,-424.75,1
1336.0,769.25,-895.75,-1179.75,-487.5,-3305.75,2026.5,-1226.25,1
1002.25,590.25,-936.5,-1097.0,-291.5,-3234.75,2128.0,-956.75,1
493.0,694.25,-733.25,-712.25,-44.0,-3101.25,2188.0,-810.25,1
12.0,573.75,-595.0,-93.25,265.25,-2421.0,1777.0,-893.5,1
-37.25,650.5,-490.5,-74.75,514.75,-2111.25,1084.0,-1085.25,1
-24.0,604.25,-366.75,62.75,786.5,-1717.75,725.0,-1171.0,1
450.75,569.75,-354.5,21.0,921.25,-910.25,599.0,-1039.75,1
960.75,475.25,-388.25,-690.5,1261.25,-525.0,573.25,-1154.0,1
1249.25,211.25,-493.75,-1130.25,1412.0,-1438.25,413.25,-1098.0,1
1280.25,146.75,-478.25,-1021.0,1586.5,-1738.25,230.25,-1047.25,1
835.0,-19.0,20.5,332.0,1858.25,-1743.5,202.0,-603.75,1
-111.5,-543.75,489.75,1527.25,2418.5,-1204.5,166.0,201.75,1
-1257.25,-886.25,541.25,1810.5,2538.0,-1149.0,-34.5,279.25,1
-1191.25,-753.0,193.75,953.25,2459.0,-1240.0,40.75,302.75,1
-1142.5,-680.5,-246.5,112.5,2528.0,-1045.5,195.75,767.75,1
-1219.25,-561.75,-286.25,986.25,2399.25,-506.0,43.25,1109.75,1
-910.0,-367.0,-217.25,277.75,2035.0,429.75,20.75,1512.25,1
-913.75,-379.75,-10.75,-477.5,1103.5,765.75,25.25,1330.5,1
-767.75,-170.5,448.5,595.0,294.0,733.0,263.75,1092.25,1
-734.0,-222.5,453.5,1343.0,-256.0,633.0,29.0,1124.0,1
-598.5,-106.0,121.75,151.75,-406.75,651.0,-5.5,1283.0,1
-449.0,-120.75,54.5,-99.5,-405.5,1343.75,409.25,1503.5,1
-368.75,-26.75,94.25,-803.25,-554.5,1787.5,1343.25,1632.25,1
-197.0,107.0,413.75,-687.0,-627.25,1758.75,1546.25,1955.5,1
-219.0,143.0,648.5,653.25,-729.5,1662.25,1515.0,1978.75,1
-169.5,224.75,172.25,90.5,-887.0,1250.75,916.0,1848.75,1
-133.0,251.5,-165.75,-314.25,-1094.75,878.25,692.0,1533.0,1
-35.25,133.25,-85.75,-67.75,-1140.75,258.0,552.5,990.5,1
-56.0,-128.75,-255.0,840.5,-1135.75,-318.5,137.0,528.0,1
-80.0,-262.25,-554.75,800.5,-1141.0,-1065.75,-289.0,212.5,1
-140.75,-432.5,-603.5,205.5,-1114.0,-1700.0,-466.5,-285.0,1
-194.0,-501.0,-621.75,585.0,-1089.0,-1951.5,-690.25,-988.5,1
-148.5,-461.75,-696.75,87.5,-1012.5,-2092.0,-666.25,-750.75,1
-104.25,-302.5,-665.5,-1034.25,-1062.75,-2323.25,-930.75,-70.25,1
-33.75,-184.25,-193.75,-1064.25,-974.25,-1530.0,-885.75,647.75,1
34.25,-34.5,256.25,701.75,-970.0,-1249.0,-379.25,995.0,1
94.75,106.0,146.5,709.5,-994.25,-144.25,-70.25,1146.0,1
-150.25,184.5,224.75,-204.75,-938.25,688.75,46.5,1273.0,1
-764.25,293.5,456.0,-769.0,-875.75,884.5,239.0,953.75,1
-843.25,205.0,826.25,-397.25,-876.5,563.5,227.5,381.75,1
-799.5,77.5,1103.5,403.5,-1123.75,-262.5,273.5,-214.5,1
-249.5,57.5,989.0,150.5,-1177.25,-774.25,450.75,-591.25,1
444.25,195.5,793.5,41.75,-1164.5,-966.5,393.0,-978.75,1
1016.5,258.5,513.5,37.75,-1174.25,-523.25,-280.25,-953.0,1
1103.5,238.25,163.75,180.75,-1107.25,-461.25,-705.0,-1012.5,1
839.5,261.0,-209.75,353.5,-1017.5,-935.25,-827.75,-914.75,1
145.25,353.0,-490.0,169.5,-814.75,-1178.25,-814.0,-687.0,1
-258.25,538.5,-517.0,244.75,-610.75,-1673.0,-887.0,-614.5,1
-430.25,722.25,-571.75,167.25,-503.25,-1763.0,349.5,-708.25,1
-268.0,771.25,-479.0,-624.25,-514.0,-1364.0,415.0,-942.25,1
28.5,568.5,-370.5,-944.25,-618.25,-792.75,374.5,-989.25,1
422.0,405.25,-306.5,-626.5,-718.25,-217.75,516.0,-848.0,1
699.5,199.75,-155.0,724.0,-814.25,-17.5,493.75,-746.0,1
579.25,-12.25,-233.0,581.5,-855.25,227.25,25.5,-655.25,1
378.0,-85.0,-426.75,608.75,-892.75,435.0,157.5,-623.25,1
113.75,-80.0,-649.5,297.75,-960.5,970.25,142.75,-942.25,1
-95.75,-18.0,-623.0,124.0,-985.75,1512.75,-305.25,-1181.75,1
-304.0,46.25,-439.25,13.5,-1097.5,756.0,-620.0,-1287.0,1
-225.5,34.25,-278.5,-249.0,-1182.5,118.0,-707.0,-1353.0,1
-67.0,49.5,-30.0,-274.25,-1087.5,240.25,-856.75,-1596.75,1
38.5,73.5,287.75,-176.75,-910.5,163.25,-410.0,-1570.75,1
207.75,47.25,548.5,-108.5,-747.5,-80.75,197.0,-1152.5,1
261.5,95.0,625.25,-105.0,-504.25,-277.0,370.25,-1103.0,1
259.25,70.0,524.75,189.5,-230.75,-89.0,225.0,-797.75,1
115.5,-16.0,358.5,262.0,-84.0,204.5,67.5,-824.0,1
59.5,-91.0,78.5,18.5,78.75,330.5,-118.0,-840.25,1
40.25,-108.75,-244.25,133.5,307.75,427.0,-496.25,-674.0,1
9.5,-127.5,-401.5,96.0,455.5,805.25,-670.5,-797.5,1
-36.0,-176.0,-465.75,-387.25,571.25,1681.5,-646.75,-598.5,1
-118.5,-159.75,-182.75,-341.5,674.25,2036.5,-494.75,-367.75,1
38.75,110.25,217.75,-1297.5,410.5,2092.5,-242.5,-129.0,1
372.25,620.75,360.25,-1462.5,476.5,2119.75,-526.25,-469.75,1
253.5,601.5,346.5,-524.0,817.0,1890.25,-748.75,-1330.5,1
39.0,569.5,370.25,-199.0,907.5,1772.5,-887.5,-1395.75,1
185.75,588.5,314.5,153.25,994.75,1857.75,-1334.5,-673.0,1
226.0,494.5,212.0,76.25,1123.25,2009.5,-849.25,13.0,1
404.5,467.0,170.0,-44.0,1279.25,2245.75,-525.75,280.75,1
573.5,380.5,15.5,216.25,1509.25,2047.5,-23.5,354.25,1
679.75,207.75,-141.0,165.25,1483.75,1560.0,344.75,234.0,1
817.75,51.0,-387.5,-105.5,1653.75,1590.5,294.5,380.75,1
943.25,-230.5,-434.5,-176.5,1717.0,2352.5,415.25,395.75,1
607.5,-579.75,-392.0,424.25,1358.25,2889.25,294.0,273.0,1
-430.0,-984.75,187.5,711.0,587.5,2280.75,457.25,639.25,1
-570.5,-907.0,492.75,1291.0,-282.5,1407.25,315.0,597.5,1
-327.5,-727.75,324.0,1377.25,-559.5,934.0,-18.75,713.5,1
-512.75,-773.75,345.5,1225.75,-351.5,566.0,-125.75,1076.5,1
-443.5,-509.0,71.75,862.5,-410.0,-11.25,242.0,1144.5,1
-662.5,-585.5,54.25,-78.5,-407.25,-968.0,569.75,1107.0,1
-708.5,-503.75,49.25,-208.75,-369.0,-1587.75,679.75,1058.5,1
-750.25,-491.75,129.75,306.0,-473.75,-1683.5,731.5,1226.5,1
-722.75,-437.25,-3.25,607.75,-682.0,-1776.75,668.75,1140.75,1
-664.75,-318.75,-318.75,293.5,-1015.5,-1662.25,265.5,986.0,1
-658.0,-315.75,-239.25,-241.5,-1116.5,-1456.25,-61.25,1048.0,1
-575.25,-206.25,-13.25,-60.25,-1216.25,-804.25,-211.25,976.0,1
-549.5,-152.0,113.75,767.5,-1248.0,-546.25,-645.5,997.75,1
-462.5,-74.25,60.75,1002.25,-1176.0,-595.5,-1648.25,1063.0,1
-433.0,-44.75,113.75,911.25,-876.0,-584.25,-1848.0,1244.0,1
-335.5,39.0,-26.5,915.25,-989.5,-654.5,-1264.25,1321.5,1
-298.5,123.5,-147.75,503.5,-1427.5,-614.25,-358.75,1188.75,1
-290.25,202.5,-234.75,192.5,-1662.5,-619.5,115.25,1053.25,1
-295.0,201.25,-324.75,-419.75,-1836.75,-493.75,523.75,898.25,1
-315.5,182.75,-222.25,-1018.75,-1862.25,-488.25,783.5,854.0,1
-269.0,141.75,123.0,-478.25,-1821.0,-353.0,546.25,750.5,1
-218.0,93.25,422.75,802.0,-1416.0,-449.5,301.25,567.75,1
-137.75,31.75,10.75,140.75,-870.75,-404.5,291.5,498.25,1
-124.75,-5.75,-290.0,-601.0,-491.75,-462.25,-76.0,524.0,1
-23.75,21.75,-234.0,-977.75,-247.0,-663.25,-466.0,570.25,1
14.25,76.5,-130.0,-848.25,-249.25,-766.5,-211.0,594.75,1
99.25,182.5,-37.25,92.5,-117.0,-872.0,324.0,478.25,1
117.0,208.75,-95.25,-100.75,94.0,-715.25,604.75,372.5,1
117.0,194.25,-147.75,28.5,205.75,-548.75,871.5,359.5,1
107.0,113.75,-124.5,-265.0,389.25,-423.0,609.0,374.5,1
52.25,111.25,54.25,-567.0,711.75,-453.25,468.25,650.5,1
46.5,142.25,29.5,-1135.75,1048.5,-351.25,981.5,949.25,1
7.0,103.5,44.25,-558.5,1218.0,-202.5,767.75,933.75,1
18.25,43.25,-8.25,-90.75,1205.75,-305.75,310.25,1030.5,1
17.25,-30.75,-129.0,-431.5,1094.25,-95.75,370.0,1161.5,1
55.5,-34.5,-75.5,-4.0,891.75,-249.25,364.75,900.0,1
108.75,-26.0,-78.25,-218.25,597.0,-614.0,306.75,777.0,1
172.5,39.75,-94.0,-144.5,319.75,-574.25,359.5,717.0,1
235.25,71.25,-149.25,-258.0,229.25,-325.0,529.5,672.25,1
289.75,113.0,-118.0,-243.5,339.25,-265.0,558.75,533.5,1
370.75,156.75,-88.25,-208.25,420.0,-179.25,557.0,312.5,1
414.0,192.75,-84.5,-291.25,509.75,-301.0,591.25,532.0,1
462.5,205.5,-88.5,-246.25,574.5,-889.0,531.25,619.75,1
488.25,162.25,-112.0,-389.25,561.0,-1043.5,647.5,334.5,1
519.75,216.0,-256.75,-417.75,628.25,-657.0,621.0,-105.5,1
566.25,242.25,-434.5,-488.5,754.75,-25.25,949.0,-281.25,1
577.75,230.25,-346.25,-457.25,681.5,659.5,1317.0,-244.75,1
573.75,192.0,-265.5,-493.25,667.5,700.75,1061.25,-178.5,1
551.75,216.0,-122.75,-491.75,615.5,710.5,692.0,-162.25,1
460.5,294.0,101.25,-505.0,694.75,721.0,516.5,177.0,1
348.0,315.25,135.25,-472.0,744.5,740.5,519.0,323.75,1
304.75,320.0,159.0,-457.75,660.0,758.0,374.5,256.75,1
320.75,257.25,40.0,-426.25,415.75,744.25,305.0,595.25,1
330.25,231.0,-97.5,-311.25,523.5,719.25,107.5,1081.5,1
350.5,205.0,-155.25,-294.5,625.0,693.75,-74.25,1764.0,1
357.75,281.25,-268.75,-239.75,243.25,499.0,132.0,1954.75,1
383.0,425.5,-338.5,-233.75,136.25,158.0,316.25,1911.25,1
446.75,415.5,-319.5,-221.0,394.5,191.75,-109.25,1039.75,1
510.0,288.25,-268.25,-215.5,934.75,447.25,-413.5,281.25,1
550.75,224.5,-372.75,-218.25,489.0,241.5,37.5,298.5,1
589.0,246.75,-413.0,-240.25,640.5,286.0,-48.0,-134.0,1
582.25,180.0,-318.0,-276.25,1470.75,400.75,-315.0,-235.0,1
442.5,76.5,-112.0,-268.0,1954.25,499.5,-599.0,-232.75,1
200.75,-70.75,117.25,-259.75,2588.25,776.5,-1105.75,-307.0,1
-55.75,-195.75,278.0,-267.5,2563.5,651.0,-1374.5,-506.5,1
-233.5,-254.0,384.5,-215.0,2513.75,479.5,-1440.0,-793.75,1
-311.25,-309.5,382.25,-125.25,2494.75,-60.5,-1103.5,-762.5,1
-385.0,-201.25,387.25,-55.75,2377.25,-525.0,-886.0,-801.5,1
-368.25,-136.5,374.5,41.75,2315.5,-196.25,-577.75,-667.0,1
-291.0,-82.75,367.0,127.25,2075.0,354.75,-464.0,-598.25,1
-198.0,-145.25,360.0,203.5,1799.5,695.25,-709.25,-449.75,1
-73.5,-246.75,412.25,230.5,1442.5,803.25,-945.75,124.0,1
-35.25,-277.0,474.75,244.0,1067.5,853.75,-961.5,391.75,1
-58.25,-278.0,431.75,244.0,730.25,1077.5,-617.5,95.25,1
-257.0,-254.75,373.5,212.75,392.5,1300.0,-802.25,-10.25,1
-564.25,-325.0,312.25,187.75,13.0,1423.25,-964.0,-246.75,1
-745.0,-388.5,330.0,147.75,-311.5,1514.5,-744.75,-843.0,1
-637.5,-402.25,277.75,150.75,-618.0,1417.0,-599.75,-1208.75,1
-293.75,-318.25,128.5,132.75,-1062.0,1458.0,-351.75,-1125.25,1
163.75,-237.0,264.0,102.5,-1366.75,1549.0,-483.25,-920.25,1
613.75,-267.5,515.5,169.5,-1556.0,1412.75,-892.5,-901.5,1
947.5,-304.75,590.0,154.5,-1686.25,962.5,-602.0,-162.0,1
1003.75,-292.5,612.25,78.75,-1734.0,167.25,162.5,199.75,1
750.25,-256.25,508.75,-10.0,-1709.75,-228.5,449.5,144.25,1
357.25,-230.5,365.0,8.5,-1822.5,-187.75,268.75,157.25,1
-65.5,-217.25,198.75,143.5,-1873.5,-162.5,-238.25,185.0,1
-269.0,-228.25,99.25,195.0,-2083.0,-63.25,-990.25,236.25,1
-289.0,-223.0,104.0,296.25,-2345.25,394.25,-653.25,208.0,1
-323.25,-283.75,58.75,294.5,-2555.25,645.5,57.0,234.25,1
-157.5,-435.5,-55.5,181.75,-2321.25,1226.75,-65.0,317.75,1
-3.75,-601.75,-246.0,178.25,-2021.25,1546.75,-843.25,406.75,1
-53.5,-569.0,-245.75,210.5,-1832.25,1494.75,-1576.25,536.75,1
-346.0,-437.25,96.5,388.5,-1702.5,899.75,-1570.75,596.75,1
-778.75,-393.25,565.5,531.75,-1652.25,581.75,-937.5,149.0,1
-913.75,-406.0,712.25,514.0,-1665.5,529.5,166.0,-788.75,1
-910.25,-355.25,709.0,594.5,-1671.0,557.25,197.0,-949.75,1
-844.25,-243.25,549.0,802.75,-1617.75,538.75,-173.5,-721.0,1
-630.5,-156.0,343.0,1096.5,-1649.0,328.5,-765.5,-1054.5,1
-486.25,-18.75,137.75,1169.75,-1896.25,729.75,-977.5,-928.75,1
-466.5,100.0,-68.5,645.0,-2260.75,975.5,-910.75,-976.0,1
-482.25,73.75,-203.75,71.25,-2481.75,898.0,-1001.0,-911.0,1
-572.75,142.0,-217.25,-384.0,-2478.5,76.75,-775.0,-859.0,1
-555.75,168.5,-160.5,-525.25,-2504.0,-1207.25,-345.75,-794.5,1
-492.75,187.75,-58.5,-341.75,-2440.0,-1281.5,77.25,-526.25,1
-303.75,181.5,-190.75,-11.5,-2486.25,-1370.25,63.75,-279.25,1
-232.25,193.5,-588.0,266.5,-2620.5,-1455.75,-79.25,107.5,1
-132.25,247.25,-956.5,162.25,-2604.0,-1209.25,-357.0,315.25,1
-10.75,231.0,-1019.5,8.0,-2536.0,-1006.75,-582.75,670.0,1
15.5,230.25,-807.75,20.25,-2389.75,-1052.25,-822.0,979.5,1
-41.75,223.0,-596.25,45.5,-1882.0,-972.25,-666.5,1107.75,1
-160.25,208.25,-473.25,8.5,-1458.75,-792.5,-433.0,724.5,1
-193.25,246.5,-411.5,31.5,-1116.25,-706.25,-323.75,88.25,1
-121.0,260.5,-338.75,8.25,-447.25,-878.5,-725.0,-439.75,1
-51.0,240.5,-485.75,-23.5,-38.75,-1339.25,-1185.5,-651.0,1
-93.0,185.25,-804.5,-137.75,312.0,-1340.25,-1226.25,-521.5,1
-66.5,206.0,-577.75,-270.5,1064.25,-1079.75,-645.75,-416.0,1
-54.75,272.75,-121.25,-412.0,1667.75,-821.0,147.25,-249.0,1
-30.75,293.75,134.25,-480.0,1853.25,-456.75,456.5,-184.5,1
36.75,331.0,331.5,-466.5,1945.75,-812.75,582.25,-166.25,1
63.25,451.0,293.0,-508.75,1947.25,-1217.75,991.25,-70.0,1
103.5,579.75,236.5,-431.75,1919.25,-1313.0,1387.75,-49.75,1
110.25,556.25,107.5,-435.75,1895.75,-1712.0,1349.25,-119.25,1
98.5,630.75,-72.5,-390.25,1849.5,-1686.25,1221.5,-82.5,1
54.5,714.5,-173.25,-335.0,1679.5,-1539.5,1188.75,100.75,1
19.0,497.75,-150.0,-277.0,1256.75,-1520.0,1185.0,210.75,1
-30.5,206.25,21.25,-129.0,868.5,-1092.75,1222.0,201.25,1
-44.5,3.25,-3.25,-62.75,488.75,-953.5,1410.5,233.25,1
-23.0,-132.0,-36.5,-21.25,343.0,-872.25,1502.0,248.5,1
-14.25,-161.0,-155.25,29.5,121.75,-898.25,1328.0,109.75,1
31.25,-259.0,-435.25,-71.5,-455.5,-607.25,1271.25,119.25,1
236.5,-302.5,-294.0,-428.75,-1136.25,-494.5,1598.25,660.25,1
728.25,-45.25,-281.75,-393.25,-1442.0,-715.0,1455.25,1115.0,1
644.5,-66.25,-288.5,-233.25,-1478.75,-1148.5,1184.75,1138.5,1
535.0,-95.0,-220.0,-204.0,-1445.0,-1731.25,1200.25,1009.0,1
669.75,129.5,-445.25,-236.75,-1312.0,-1700.75,996.5,515.5,1
689.5,495.0,-452.25,-228.0,-1251.0,-1489.75,881.0,-153.0,1
647.25,714.0,-758.25,-269.5,-1261.25,-1390.0,1029.5,-265.25,1
558.25,698.75,-1064.5,-375.25,-1290.5,-831.75,1071.0,-429.5,1
446.0,704.0,-937.0,-418.75,-963.75,-305.75,1171.5,-324.0,1
313.25,385.25,-665.75,-313.25,-1129.5,3.25,1404.25,-292.0,1
104.0,149.75,-542.0,-344.5,-1481.5,180.75,1438.75,-224.25,1
102.25,-33.0,-488.0,-321.25,-1539.75,416.25,1117.0,-370.75,1
-22.0,-267.75,-136.75,-121.75,-1929.75,763.25,590.25,-824.25,1
-15.0,-305.75,-32.0,64.75,-1474.25,920.0,-49.25,-1098.5,1
-100.5,-648.5,-158.25,207.25,-750.75,850.5,-405.5,-791.0,1
-359.25,-827.25,40.0,398.25,-296.25,642.25,-666.75,-885.0,1
-717.25,-1020.25,538.5,596.25,50.25,694.0,-773.0,-871.0,1
-1251.5,-1302.5,1027.25,857.0,403.25,855.75,-793.0,-608.0,1
-1623.25,-1180.75,1368.25,1139.75,901.0,1025.0,-1027.25,-628.5,1
-1581.0,-878.75,1406.75,1090.75,1167.0,1030.0,-1242.25,-1072.75,1
-1284.0,-677.0,1394.5,976.25,1126.5,819.25,-1386.0,-1058.25,1
-946.25,-588.0,1372.0,904.0,1017.75,708.0,-1365.0,-933.5,1
-498.25,-444.5,1214.25,860.5,925.5,1083.25,-1356.5,-887.0,1
-67.25,-336.0,790.75,815.75,701.5,1328.5,-1821.25,-976.25,1
388.25,-59.75,657.75,243.0,-93.25,1467.0,-2024.0,-1090.0,1
799.25,310.0,483.75,-634.25,-835.75,1465.75,-2065.0,-1175.0,1
1051.25,703.75,-75.0,-474.0,-473.5,1126.0,-2030.5,-1238.75,1
962.0,1098.0,-705.0,-325.25,-57.25,740.5,-1471.0,-1189.25,1
780.5,1459.25,-1084.25,-573.5,249.25,840.5,-1015.0,-1117.5,1
712.0,1630.75,-900.75,-657.25,514.25,1200.5,-897.25,-1142.5,1
653.0,1567.5,-763.25,-883.0,592.0,1568.25,-432.0,-1055.5,1
577.5,1246.75,-397.75,-740.0,1383.5,1411.25,-91.75,-898.0,1
227.0,383.25,114.25,-430.0,2019.25,831.25,-361.25,-876.0,1
-152.25,-406.0,289.0,-181.25,1903.0,1130.25,-752.0,-931.5,1
-401.25,-1202.0,311.5,225.25,2103.75,1247.25,-925.5,-925.0,1
-475.0,-1457.25,392.25,-4.75,2496.25,923.75,-681.25,-895.0,1
-324.0,-1232.25,616.5,-718.75,2086.75,858.25,-602.5,-961.0,1
-47.0,-786.5,710.25,-1141.25,1377.0,731.75,-468.75,-1100.0,1
-39.75,-430.75,799.75,-1007.5,1267.0,709.0,-307.75,-1181.0,1
-303.25,-291.75,598.25,-867.5,1362.75,726.5,-315.75,-1265.25,1
-305.0,-245.75,262.5,-763.25,1439.5,1100.5,-318.25,-1099.25,1
-325.0,209.75,51.75,-578.5,1529.75,826.25,-392.75,-470.0,1
-192.25,593.75,-78.5,-331.5,1615.25,265.0,-419.25,-453.75,1
321.75,812.75,-414.5,-139.75,1679.75,460.75,-488.75,-515.5,1
1051.0,885.25,-375.5,13.0,1766.5,686.25,-500.0,-125.75,1
1198.75,848.0,-391.0,194.75,1904.0,1077.0,-582.25,751.0,1
1249.75,751.25,-877.75,204.5,2078.5,1239.0,-587.0,897.0,1
1250.75,571.75,-987.75,277.5,2230.75,1221.5,-585.25,981.0,1
746.25,291.5,-989.25,454.0,2368.5,872.0,-763.75,1053.75,1
44.0,-77.0,-342.75,631.5,2642.5,639.75,-960.75,1164.75,1
-354.0,-491.0,-27.75,797.75,2993.75,806.75,-1114.0,1229.5,1
-676.25,-783.5,271.5,881.25,2545.0,646.0,-1191.75,1156.25,1
-778.25,-770.5,530.0,903.25,1036.75,724.0,-1321.75,1015.75,1
-733.25,-669.75,833.25,1112.0,824.25,942.5,-1506.5,778.5,1
-592.25,-516.25,731.75,935.0,1215.25,803.0,-1713.75,469.5,1
