0,1,2,3,4,5,6,7,label
-4.0,-1112.75,-57.25,701.0,1677.75,-579.25,1362.25,-909.75,2
15.0,-916.25,-228.75,843.0,1307.5,-648.75,1634.5,-1033.0,2
40.25,-644.5,-151.0,958.0,987.25,-738.25,1179.25,-1064.75,2
-23.75,-290.5,-235.0,907.0,686.25,-804.75,700.75,-1206.25,2
-119.75,39.0,-267.0,848.25,177.25,-725.0,367.25,-1326.25,2
-341.0,379.75,-530.75,762.0,-482.75,-502.25,320.75,-1472.75,2
-538.25,596.0,-1086.5,764.25,-350.5,-453.5,234.0,-1362.25,2
-500.5,617.5,-1726.0,808.0,-102.0,-395.5,146.5,-1391.75,2
-402.75,568.0,-2289.5,867.5,110.5,-264.75,1.25,-1635.0,2
-412.5,459.75,-2698.75,876.25,-193.5,-214.25,-287.0,-1657.0,2
-455.75,404.5,-2664.5,810.25,-630.0,-200.75,-250.75,-1612.75,2
-377.25,307.25,-2120.25,882.5,-1049.5,-241.25,-365.5,-1652.5,2
-274.0,261.25,-1504.0,917.5,-1647.5,-288.0,-303.5,-1705.5,2
-103.0,253.5,-963.25,788.75,-1951.25,-177.0,-306.75,-1862.75,2
-114.75,245.0,-582.25,692.75,-1981.0,137.25,-270.0,-1916.25,2
-294.5,242.0,-328.25,718.75,-1807.25,464.75,-134.25,-1732.5,2
-275.5,234.75,-251.5,809.0,-1583.0,687.75,-1024.5,-1550.75,2
-229.25,238.5,-579.25,848.5,-1403.25,781.75,-1322.25,-1323.75,2
-185.5,238.75,-1086.25,716.5,-1660.0,742.0,-1795.25,-992.0,2
-248.0,230.0,-1617.0,692.75,-1827.0,647.5,-2210.0,-688.5,2
-496.5,170.25,-2021.75,700.5,-1823.25,522.0,-1894.0,-443.25,2
-574.5,107.25,-1747.75,607.0,-1829.75,483.5,-1002.75,-21.0,2
-625.0,24.0,-747.25,418.75,-1572.0,429.0,-525.75,333.0,2
-820.75,-56.75,-18.25,159.0,-1461.75,340.75,-111.5,401.5,2
-917.75,-110.0,416.0,-140.75,-1415.75,-11.0,42.5,500.0,2
-777.75,-115.0,430.25,-226.25,-1289.25,-308.0,522.5,618.25,2
-466.5,-69.0,-301.5,-226.0,-1154.25,-539.75,737.5,610.25,2
-273.75,-16.75,-1159.25,-447.75,-1038.5,-629.5,559.25,678.5,2
-392.5,47.0,-1201.0,-528.5,-927.25,-746.5,493.0,656.0,2
-491.5,61.0,-1286.5,-674.5,-874.75,-756.25,303.0,501.5,2
-207.25,43.75,-431.75,-806.5,-824.25,-752.75,257.25,412.0,2
75.5,-4.0,1561.75,-740.0,-791.0,-792.0,334.0,393.25,2
320.0,-73.75,2322.25,-777.75,-526.5,-917.0,287.5,422.25,2
383.5,-113.0,2241.75,-801.75,-99.5,-1034.5,283.0,390.5,2
354.5,-171.75,1815.75,-595.25,57.25,-1021.5,303.25,330.5,2
422.0,-201.75,1659.25,-337.0,211.0,-948.0,546.0,334.5,2
398.25,-232.75,1649.5,-208.75,-10.5,-881.25,428.0,331.0,2
564.25,-284.25,1997.25,53.75,-497.5,-687.25,452.75,348.75,2
678.5,-355.25,2240.25,106.0,-618.5,-412.25,923.0,416.0,2
582.0,-403.25,2284.25,85.5,-775.25,-58.0,1314.5,433.0,2
374.5,-370.25,2068.5,273.5,-1041.75,248.25,1402.5,473.5,2
219.0,-405.0,1761.25,293.75,-886.75,556.25,1449.5,607.25,2
215.75,-672.5,1499.25,168.0,-302.75,933.75,1282.0,829.0,2
13.75,-869.25,1353.75,433.0,-90.0,1287.5,695.0,931.75,2
-315.5,-773.5,1063.25,1053.5,-118.75,1536.75,99.0,757.75,2
-271.25,-646.0,1173.0,746.5,-97.5,1598.5,-458.75,207.5,2
-240.25,-571.25,697.25,222.75,174.5,1545.0,-591.5,-195.75,2
-290.0,-527.0,-121.75,144.0,422.0,1434.5,-589.0,-146.5,2
96.75,-494.25,-551.25,-17.5,301.5,1171.25,-660.0,63.75,2
242.75,-392.0,-576.25,-202.0,-293.75,879.25,-1041.75,161.5,2
-188.75,-281.0,-674.25,-177.75,-787.5,646.25,-1095.5,423.0,2
-74.0,-153.5,-620.5,196.25,-1159.75,314.75,-949.25,244.75,2
-25.75,18.25,-603.25,562.75,-1368.0,-4.0,-814.0,314.0,2
-185.0,195.5,-669.75,345.5,-1552.25,-178.75,-774.75,254.5,2
-276.0,294.0,-89.25,-64.25,-1678.25,-252.75,-964.0,190.75,2
-70.5,282.75,29.0,-845.25,-1654.0,-307.25,-855.0,245.75,2
268.75,285.5,-93.75,-1405.0,-1782.5,-307.75,-449.5,287.0,2
213.75,272.5,-509.75,-1389.25,-1842.75,-228.5,-174.0,315.5,2
278.0,276.75,-1148.75,-1160.75,-1832.25,-145.25,-349.5,386.5,2
-7.5,277.75,-1341.5,-956.75,-1897.75,-127.5,-600.5,495.5,2
-277.0,294.0,-1406.75,-1173.75,-1999.75,-54.5,-761.5,288.25,2
1.5,318.0,-1451.5,-883.0,-1015.75,100.5,-739.0,208.5,2
266.5,289.0,-1455.0,-530.25,201.5,380.75,-595.5,119.0,2
416.75,305.25,-1406.0,-533.75,320.75,687.5,-551.5,28.25,2
687.0,405.75,-1269.75,-292.25,413.0,692.25,-553.0,-87.75,2
1013.75,479.25,-1187.25,521.0,402.25,773.25,-604.0,-278.0,2
652.25,444.0,-1208.75,544.5,331.5,765.25,-617.0,-317.75,2
195.0,423.75,-1295.0,544.0,340.0,668.5,-361.0,-176.75,2
471.5,615.0,-1585.75,361.25,432.0,425.5,390.75,194.5,2
832.5,794.75,-1860.5,-7.75,693.25,517.75,710.25,-132.75,2
34.75,-50.5,-1364.5,541.0,1623.75,1449.5,370.5,-1331.0,2
-856.0,-874.0,-493.0,1168.5,1604.0,1252.25,598.75,-1340.25,2
-703.75,-863.0,-521.25,1147.5,1549.75,714.5,856.5,-957.25,2
-597.75,-650.75,-245.25,653.25,1752.0,466.5,703.25,-1054.0,2
-737.25,-726.5,30.5,-219.0,1465.5,129.75,723.5,-964.0,2
-244.5,-356.0,-75.75,-698.75,1060.25,-257.75,697.75,-863.25,2
-354.5,-380.25,-43.75,-676.25,885.0,-510.25,689.25,-843.25,2
-142.25,-170.75,-231.25,-934.75,521.0,-992.25,822.25,-722.0,2
-13.25,-142.0,-651.25,-937.25,441.25,-975.5,749.75,-534.25,2
-25.75,12.5,-720.0,-1086.25,147.75,-1088.75,788.75,36.25,2
-98.0,142.25,-781.25,-1080.0,18.75,-1083.5,783.25,465.75,2
-249.75,210.5,-697.25,-1144.5,-182.5,-1140.75,829.25,920.0,2
-555.25,307.0,-224.5,-537.25,-525.0,-1146.75,976.0,1089.5,2
-610.25,261.25,17.0,-346.75,-620.0,-1170.5,1014.0,1043.5,2
0.5,280.25,-126.75,-782.0,-636.0,-1198.0,959.5,754.0,2
305.25,247.5,535.75,-609.75,-620.5,-1161.5,853.5,571.0,2
506.25,263.5,1295.5,-62.75,-902.25,-1199.0,806.0,642.5,2
750.75,200.0,816.25,244.5,-1198.5,-1223.0,835.25,537.25,2
1051.5,151.75,738.5,219.25,-1500.75,-1074.75,896.75,517.5,2
1183.5,108.75,728.0,238.75,-1425.25,-885.0,961.5,521.5,2
853.0,108.25,538.25,133.25,-1252.75,-820.75,912.25,460.5,2
582.25,130.75,582.75,-115.25,-973.0,-632.5,714.5,349.75,2
203.5,195.0,709.0,-639.5,-484.0,-424.25,670.5,340.5,2
-134.0,440.75,532.75,-1183.0,-73.0,-474.75,988.0,589.5,2
226.0,793.5,-187.5,-984.25,-150.5,-452.25,1000.0,324.5,2
322.0,763.0,-209.5,-782.25,-253.5,-200.0,863.75,-466.0,2
331.0,710.5,-184.25,-732.25,-218.25,15.25,767.5,-959.25,2
268.0,653.0,82.75,-214.0,-192.75,150.75,594.75,-858.25,2
209.5,424.75,1069.25,414.0,-116.75,471.5,346.5,-784.75,2
277.75,302.5,1311.5,631.0,-10.75,576.0,201.75,-701.75,2
486.0,204.0,671.5,528.75,92.25,864.5,-43.75,121.5,2
737.75,125.5,115.5,370.5,114.25,975.25,-161.75,899.0,2
605.75,114.0,-775.75,166.25,-103.75,1079.5,-392.0,1419.75,2
160.75,74.5,-1374.0,-959.5,-318.5,1219.25,-442.5,1569.25,2
343.5,124.0,-1549.75,-984.0,-207.75,1283.0,-368.25,1619.75,2
422.0,58.75,-1522.5,-836.25,1623.75,1234.25,-307.25,1614.75,2
264.75,107.0,-1332.5,-145.25,2147.25,1044.75,-357.0,1350.25,2
234.75,276.75,-1432.5,260.25,2009.25,949.5,-492.25,851.75,2
-280.0,308.75,-996.75,440.25,1757.0,1076.75,-643.5,29.75,2
-1582.0,-235.25,-446.5,724.25,1942.75,1316.75,-697.5,-100.25,2
-1947.25,-447.0,-232.25,1345.5,1653.75,1294.75,-575.25,220.75,2
-1288.5,-569.5,-146.75,1821.75,1033.25,868.5,-414.25,456.0,2
-1038.75,-737.25,238.75,1704.5,712.0,703.0,-111.25,517.25,2
-1232.25,-475.25,452.5,984.75,51.25,384.25,308.75,447.5,2
-937.75,-303.0,821.25,-16.25,-766.75,-102.5,719.75,379.75,2
-1038.75,-237.0,1479.75,-200.75,-1027.5,-250.5,1296.25,433.5,2
-814.0,-14.25,1681.75,-1.0,-781.5,-105.0,1525.0,545.75,2
-553.75,118.25,1334.75,147.0,118.75,-42.0,1361.0,673.0,2
-162.25,255.0,1106.25,123.5,880.75,-49.25,1112.25,413.0,2
105.0,152.0,987.25,121.75,863.0,167.25,1047.75,218.5,2
668.5,91.0,346.0,-232.25,355.5,489.25,1046.75,207.0,2
1616.5,62.5,-19.25,-1074.5,-207.0,535.5,1044.5,-123.75,2
1899.5,288.0,-439.0,-1170.0,-293.5,479.75,1328.0,-497.75,2
1374.5,756.75,-655.5,-329.0,-247.25,334.0,1529.25,-1006.0,2
985.5,1043.25,-491.25,53.75,-201.5,395.5,1370.25,-1323.0,2
983.5,1058.5,-529.5,188.0,149.75,679.0,1260.5,-1262.25,2
129.25,520.0,-515.25,1184.75,1031.75,1037.5,879.0,-1218.25,2
-1172.25,-611.75,-448.25,1990.75,1103.0,1516.5,312.75,-1122.5,2
-1342.0,-971.25,-570.5,1352.5,661.25,1551.5,-15.25,-1038.0,2
-1072.0,-668.0,-846.25,136.0,-433.75,1430.75,-375.0,-784.25,2
-983.75,-452.75,-562.5,-177.75,-1160.75,1371.0,-518.0,-752.75,2
-775.75,-328.75,-246.0,-274.5,-1322.5,1131.25,-255.25,-963.75,2
-574.75,-294.75,303.25,-29.5,-1480.0,939.25,42.5,-950.25,2
-305.0,-416.5,1176.25,921.0,-2204.75,650.5,324.0,-750.75,2
702.25,-160.25,1170.75,1025.0,-2613.5,329.0,267.5,-1197.25,2
995.0,-55.5,694.75,487.5,-2637.5,138.0,49.75,-1765.25,2
1522.25,-229.75,403.25,-365.25,-2793.0,-167.0,54.75,-1087.5,2
1726.0,-240.25,216.25,-833.5,-2851.0,-543.25,-84.75,126.0,2
1187.5,-322.75,24.75,-984.0,-2852.0,-701.0,15.25,800.75,2
510.5,-377.0,450.0,-1144.5,-2883.75,-745.5,124.5,897.75,2
346.0,-191.5,956.5,-1381.0,-2517.5,-697.25,34.75,463.25,2
-140.75,117.5,745.5,-1262.25,-197.5,-791.5,73.25,-53.0,2
-674.25,367.75,473.0,-1055.5,1337.5,-795.5,-288.25,-544.75,2
-650.0,849.0,237.25,-1049.5,2433.75,-839.0,-903.5,-476.0,2
-697.25,1081.0,378.0,-1047.5,2487.5,-778.25,-1019.5,-66.5,2
-597.75,1117.0,647.5,-235.25,2556.25,-801.5,-816.25,78.5,2
-714.75,1169.25,-62.5,500.25,3001.5,-1195.0,-558.0,99.75,2
-1037.0,914.75,-758.0,969.75,2695.25,-1684.5,-446.0,186.75,2
-1166.25,235.5,-871.25,1143.25,2247.0,-1700.0,-371.75,7.0,2
-1100.5,-468.0,-1252.0,1167.25,2141.5,-1388.0,-343.75,-1208.25,2
-1017.5,-919.5,-1305.75,1189.25,2032.75,-1032.25,-297.0,-1491.75,2
-872.25,-913.25,-1516.25,1227.0,2092.75,-629.0,-269.5,-1376.0,2
-799.75,-888.25,-1754.0,1128.75,2242.5,-547.0,-417.25,-1003.5,2
-479.5,-889.75,-1455.0,853.5,2276.75,-252.75,-551.5,-718.25,2
0.25,-814.25,-912.5,62.75,2885.5,-50.0,-631.5,-425.25,2
295.5,-873.0,-638.25,-706.5,3104.25,-77.25,-759.75,293.0,2
556.5,-941.0,-360.0,-201.0,1866.0,-9.0,-946.25,245.75,2
593.75,-1077.5,-414.75,489.25,649.75,-24.25,-1128.75,278.75,2
1161.0,-1195.25,-368.75,716.75,527.5,182.75,-1147.25,582.5,2
1450.25,-455.0,119.25,679.5,157.5,302.25,-1162.75,1350.25,2
1393.5,630.0,84.25,203.25,-554.25,641.0,-1003.75,1710.5,2
878.0,634.75,-551.0,-805.5,-505.75,854.5,347.75,1976.5,2
-102.5,586.5,-742.5,-836.0,480.0,649.5,849.75,1948.0,2
-700.5,479.25,-116.0,-838.75,1198.25,742.0,881.5,1765.25,2
-725.5,245.5,1316.0,-840.5,395.5,749.25,916.25,1905.75,2
-659.25,400.0,1609.25,-191.5,-1281.0,766.5,813.5,1543.0,2
-604.5,511.75,1625.5,84.0,-1700.5,769.75,516.75,1122.25,2
-723.0,811.0,850.75,-4.75,-2693.5,743.25,225.0,993.5,2
-718.0,918.25,554.5,217.75,-2439.75,653.25,250.5,480.0,2
-77.0,1002.0,920.25,229.75,-2712.25,341.5,388.75,-114.5,2
271.25,1008.0,1461.75,14.5,-1562.0,138.75,406.75,-470.75,2
664.75,975.0,1314.5,-198.5,-169.75,-98.25,537.75,-665.25,2
735.5,969.5,1043.25,-117.25,240.0,-407.25,845.5,-294.0,2
592.75,908.5,345.5,178.0,290.0,-695.75,1156.5,-44.5,2
494.0,849.0,-355.75,374.0,87.5,-630.5,1149.0,100.0,2
498.5,-678.0,-154.75,658.5,-146.75,-447.75,1029.5,77.5,2
126.75,-1188.75,-182.75,991.0,-490.75,-388.25,952.0,-505.75,2
-485.25,-1294.25,-167.0,1005.25,-799.5,-242.25,947.75,-1250.5,2
-1044.25,-1366.0,177.75,991.75,-143.75,-177.75,837.25,-920.75,2
-918.25,-1437.0,428.5,351.25,698.75,-148.25,610.5,-495.0,2
-430.25,-1550.5,600.5,-895.75,2062.25,-178.5,434.75,-377.0,2
-121.75,-1758.25,335.5,-1013.25,2475.0,-177.75,-523.25,10.0,2
492.75,-1435.25,236.75,-1096.75,2647.75,8.0,-1586.5,404.0,2
919.0,-715.5,382.5,-978.25,2975.0,10.25,-2364.5,312.75,2
1444.5,-512.75,521.0,-1065.25,3009.75,-205.0,-2336.5,70.0,2
1674.0,-654.0,556.25,-716.5,2601.5,-228.25,-2215.0,-161.25,2
580.75,-1186.5,798.5,46.5,2554.5,-153.5,-1868.25,-107.25,2
517.25,-1615.25,367.75,140.25,1757.75,121.5,-1313.0,-362.5,2
811.5,-864.0,-1173.5,-243.75,750.5,467.0,-783.25,-999.25,2
350.5,-468.0,-881.0,-518.75,603.75,420.0,-342.75,-904.0,2
-463.0,-261.0,-621.5,-694.5,964.75,292.25,-92.25,-906.5,2
-1351.25,153.0,-503.75,-710.25,956.0,269.25,-205.0,-874.5,2
-1315.25,1250.0,-677.5,-492.25,1180.75,143.75,-618.5,-395.25,2
-1233.25,1865.75,-616.0,237.25,1650.0,97.75,-695.75,100.0,2
-1294.75,1775.25,-362.0,921.0,1099.75,-9.25,-499.0,393.0,2
-1232.25,1581.0,-825.0,933.75,66.25,-55.25,-544.25,831.75,2
-1258.25,1689.75,-1394.0,944.75,-578.0,-46.5,-585.75,1339.25,2
-1115.5,1954.25,-1087.0,860.5,-729.25,-55.75,-598.25,1538.75,2
-811.5,2108.25,-363.25,822.5,-731.5,-101.75,-699.75,1582.25,2
-134.75,2001.75,-193.25,751.75,-702.5,-293.5,-754.5,1586.75,2
361.25,1726.0,-316.75,774.0,-638.5,-137.5,-803.25,1554.0,2
467.5,1533.5,-600.0,570.25,-395.75,317.75,-798.25,1160.0,2
305.75,1324.5,-1085.25,340.0,-162.75,721.25,-784.75,687.75,2
-101.75,1103.25,-1037.25,211.75,-229.25,779.5,-779.75,406.5,2
-455.25,831.75,-420.5,-2.5,-419.25,1117.75,-807.0,315.5,2
-474.5,528.75,252.0,-144.75,-627.25,1067.75,-876.25,414.5,2
-86.5,223.5,1363.0,-315.25,-872.5,951.5,-1010.25,719.75,2
67.5,-52.25,1695.0,-676.5,-931.75,977.0,-1045.0,976.5,2
517.0,-21.5,1293.75,-1119.0,-721.25,549.0,-846.75,779.75,2
968.25,-44.25,976.5,-1086.75,288.75,546.75,-776.75,702.75,2
799.0,-588.0,1010.0,-256.25,741.25,847.75,-694.25,606.0,2
288.5,-989.0,1036.5,-428.0,574.0,620.75,-261.5,-523.25,2
170.75,-846.5,96.0,-953.25,407.0,159.5,1006.5,-1579.25,2
-573.5,-986.0,-1287.75,-864.75,439.75,-697.5,1077.25,-1724.75,2
-1015.75,-926.25,-810.0,-1215.5,-1564.25,-816.0,1107.5,-1568.25,2
-846.75,-956.5,-1952.5,-1150.25,-1328.25,-686.5,1194.75,-1186.0,2
-808.5,1009.25,-2303.5,-1237.0,-1375.5,1324.25,1332.25,-952.0,2
-665.75,1040.5,-2317.5,-1185.75,-1072.75,1385.25,1542.0,-1084.75,2
-694.25,966.5,-2318.75,-1203.0,-1397.75,1332.5,1709.75,-940.0,2
-622.5,988.5,-819.5,-1277.25,-1671.25,1313.75,1686.0,13.5,2
-682.0,886.0,-175.25,-1245.0,-1711.5,1315.25,1708.0,552.75,2
-697.25,886.25,-26.25,456.25,-2000.0,1268.5,1612.75,535.25,2
-727.0,821.0,46.0,675.0,-2346.75,1252.75,1446.5,311.5,2
-717.25,863.5,119.5,587.0,-1988.75,1254.0,1402.25,-39.25,2
-741.75,851.75,-5.5,643.5,-1813.25,1283.25,1542.75,-308.25,2
-794.25,832.0,-787.5,602.0,-2039.0,1232.25,1736.25,-8.25,2
-802.75,802.5,-1326.75,723.75,-1598.5,1268.75,1887.0,376.75,2
-877.25,775.25,-1718.5,820.25,-1164.75,1274.25,1874.0,701.75,2
-881.25,785.5,-1757.25,894.5,-857.5,1323.0,-283.75,1258.75,2
-1038.5,700.5,-1205.25,917.0,-717.5,1383.5,-306.0,1660.0,2
-422.25,730.75,681.0,793.5,1393.5,1316.0,-368.25,1919.0,2
681.5,-239.75,346.5,735.25,1536.0,1218.25,-428.0,1957.0,2
560.0,-1194.0,454.5,767.25,2400.25,521.75,-548.25,2007.75,2
454.5,-1203.0,365.5,742.0,2710.5,-748.5,-665.5,2024.75,2
308.75,-1235.25,1827.75,720.25,2784.0,-767.25,-667.0,1951.0,2
290.5,-1217.25,2216.5,690.0,2815.25,-769.0,-559.75,1779.0,2
293.75,-1257.75,1709.0,685.0,2684.5,-752.75,-340.25,1310.25,2
368.5,-1276.5,569.75,725.25,2552.25,-779.25,-220.75,603.5,2
659.5,-1287.5,682.5,708.25,2949.5,-820.25,-274.0,386.5,2
798.0,-1322.75,1064.75,814.75,3224.0,-819.0,-386.5,-252.75,2
895.75,-1244.5,1759.75,908.0,3205.75,-795.0,-463.0,-495.25,2
1096.5,-1173.75,2103.0,1003.25,2592.5,-786.5,-509.75,-813.5,2
1186.75,-1133.25,1938.0,1075.75,1352.0,-798.75,-621.75,-1406.75,2
1219.5,-1080.5,1631.0,1233.25,1251.0,-758.25,-722.0,-1834.25,2
1047.0,-1063.0,1220.25,1177.75,985.5,-759.25,-679.25,-1775.75,2
965.75,-1069.5,1159.25,976.25,953.25,-790.25,-692.75,-1598.5,2
1243.25,-1100.5,1278.25,999.75,1472.75,-831.5,-788.5,-1617.0,2
1448.5,-1132.25,1094.25,981.75,1971.0,-900.25,-834.0,-1448.25,2
1734.5,-1111.25,430.25,1003.0,2449.5,-976.25,-887.75,-1363.25,2
1980.75,-1050.5,74.0,1034.25,2621.25,-1041.75,-984.75,-1441.5,2
1935.5,-1046.25,524.0,1067.0,2256.0,-1071.25,-1065.5,-1398.75,2
1900.5,-1022.0,771.75,1085.5,2015.75,-1093.75,-1207.75,-1425.75,2
1895.5,-1083.75,1026.5,1031.25,1875.5,-1124.5,-1334.0,-1478.75,2
1904.25,-1099.5,871.25,980.0,1886.5,-1155.75,-1350.75,-1497.75,2
1402.5,-1074.25,814.0,946.25,2195.25,-1146.25,-1138.25,-1406.5,2
667.75,-1124.75,900.0,924.0,2282.75,-1179.0,-654.25,-1263.25,2
5.75,-1058.0,752.25,840.25,2124.0,-1216.75,-274.75,-1166.0,2
-509.75,-968.0,1013.5,631.0,2045.0,-1215.0,195.5,-1069.0,2
-606.75,-917.0,936.0,-550.0,1413.5,-1177.5,393.0,-848.0,2
-930.5,-616.5,893.75,-905.5,848.5,-1132.0,588.5,-865.75,2
-1046.75,-156.25,927.25,-956.75,1049.0,-1053.0,712.75,-1300.75,2
-1122.75,279.75,828.5,-1025.0,873.25,-887.75,759.25,-1483.0,2
-1388.5,627.75,603.0,-1061.75,483.25,-730.75,956.75,-1365.25,2
-1686.5,1013.25,289.25,-1043.75,-488.75,-628.0,1089.75,-1031.75,2
-1603.0,1100.25,293.75,-1072.5,-623.75,-327.75,1315.25,-776.75,2
-703.5,1036.0,256.25,-1119.25,-428.75,-116.5,1305.25,-334.0,2
113.75,1018.0,301.75,-1144.25,-1417.75,-66.25,1361.0,-143.0,2
220.0,1078.0,428.25,-1225.75,-1828.75,-89.25,1460.5,-100.0,2
208.75,1170.5,416.5,-1211.75,-1877.5,11.0,1356.5,4.25,2
193.0,1211.5,465.25,-1164.0,-1275.0,137.75,1214.5,9.5,2
222.0,1273.5,509.5,-1247.75,-689.5,362.75,1202.5,262.75,2
235.5,1279.25,542.0,-1239.5,-1257.75,663.0,1186.25,416.25,2
201.5,1249.75,460.5,-1253.5,-1956.5,892.25,1155.5,256.25,2
172.5,1283.0,380.75,-1321.0,-2034.0,946.75,1085.5,377.25,2
174.0,1288.75,303.75,-1262.0,-1968.0,978.75,1033.5,391.75,2
55.5,1286.0,201.0,-1251.5,-2078.0,1007.0,1091.5,169.5,2
-933.0,1316.5,174.0,-1207.5,-2370.5,897.5,1208.5,103.25,2
-1274.5,1621.75,-68.5,-1159.0,-2599.75,608.5,1629.0,257.5,2
-845.5,1636.75,-24.75,-1168.75,-2350.25,630.5,1780.75,393.0,2
-529.5,1539.25,247.0,-1168.25,-2076.5,1001.75,1395.5,328.75,2
-445.5,1512.75,350.75,-1163.0,-1867.0,1164.75,1048.25,-79.0,2
-319.75,1264.25,398.0,-1013.0,-1211.5,1240.75,740.0,-399.25,2
-689.75,1133.0,147.0,-919.5,-1055.0,1315.5,654.25,-414.25,2
-1470.0,1022.0,-54.5,-816.0,-650.5,1227.75,770.0,-308.75,2
-1832.25,905.25,-116.0,-791.0,-696.25,1200.25,780.0,-1.5,2
-1909.5,885.75,-359.25,-775.0,-1003.5,1260.75,530.75,112.5,2
-1945.25,754.25,-642.5,-717.0,-1369.75,1335.0,20.25,200.0,2
-1938.25,711.5,-893.5,-653.25,-1586.25,1258.75,-29.75,418.5,2
-1891.0,628.0,-811.75,-571.25,-1750.0,1279.25,672.0,651.0,2
-1868.5,640.75,-642.75,-501.25,-1614.75,1330.75,1376.75,764.75,2
-1619.25,665.25,-505.5,-455.5,-1228.75,1236.25,1518.0,712.5,2
-522.75,748.75,-757.5,-479.5,-1206.25,1120.5,1358.5,808.5,2
192.0,815.0,-843.5,-519.25,-1212.25,937.25,785.75,830.75,2
135.5,830.0,-554.25,-620.25,-1347.5,799.25,382.0,912.25,2
141.0,867.75,-470.0,-577.5,-1511.75,746.0,427.75,870.25,2
254.0,810.0,-345.0,-498.75,-1612.0,633.0,341.75,911.0,2
86.25,642.25,-442.5,-195.0,-1782.25,470.75,365.5,928.5,2
-22.75,462.25,-854.0,392.75,-1819.0,219.0,487.25,876.25,2
-193.5,337.5,-1097.0,356.5,-1892.5,97.0,669.0,906.25,2
-413.75,293.25,-885.25,345.25,-1593.0,63.0,705.75,773.5,2
-401.0,313.75,-692.5,30.5,-1431.5,-49.5,654.5,696.5,2
-777.0,315.0,-771.25,-699.25,-1437.75,-134.75,852.5,653.5,2
-1580.75,357.75,-946.0,-1583.5,-1300.75,-213.0,1064.0,647.5,2
-2237.0,337.25,-1156.75,-1569.75,-1039.25,-218.25,972.25,607.25,2
-2554.0,255.0,-913.25,-1575.5,-704.25,-199.5,830.5,535.5,2
-2559.25,251.75,-598.75,-1534.5,-544.75,-184.5,770.75,412.75,2
-2526.25,248.0,-640.5,-1516.75,-499.5,-119.0,228.25,309.75,2
-2594.75,257.75,-727.75,-1387.25,-461.25,-27.0,-84.0,227.25,2
-2594.0,244.0,-823.5,-590.75,-467.0,-30.25,-13.25,111.75,2
-2551.0,239.25,-968.0,-145.5,-593.5,-123.25,-79.0,39.75,2
-2468.25,246.75,-946.5,509.5,-760.75,-274.5,137.75,-92.25,2
-2336.75,240.5,-819.5,576.25,-732.25,-461.0,172.25,-242.75,2
-2130.75,311.25,-747.5,596.5,-955.0,-567.75,179.5,-338.5,2
-1787.0,429.5,-736.25,207.0,-956.0,-503.0,272.5,-305.25,2
-1467.0,526.0,-980.0,-293.25,-827.0,-360.75,-16.5,-230.0,2
-1253.0,580.5,-972.25,-735.0,-754.5,-195.5,-191.25,-161.25,2
-1080.0,608.0,-835.25,-869.0,-650.0,-168.0,-129.5,-130.0,2
-778.0,627.25,-674.75,-661.5,-593.0,-206.25,320.0,-90.5,2
-386.75,633.25,-617.0,-298.5,-534.5,-56.75,885.25,-21.75,2
-94.5,635.75,-764.75,109.5,103.75,181.0,923.5,20.25,2
3.5,574.0,-902.5,472.5,577.75,256.25,825.75,59.0,2
-84.5,386.5,-981.75,957.75,399.25,345.0,792.5,78.25,2
-198.25,230.0,-1044.75,996.0,352.25,441.25,397.5,82.25,2
-24.25,111.25,-1065.25,1072.25,524.25,509.5,-85.25,91.5,2
278.75,-96.75,-1067.75,1148.5,951.5,779.5,-100.0,253.75,2
415.25,-413.0,-1143.25,1272.0,1288.75,1332.5,19.75,432.75,2
26.5,-466.0,-1008.0,-306.5,1031.5,1569.0,760.75,3.0,2
-220.5,-395.75,-684.5,-199.0,800.75,1488.5,1270.5,-634.25,2
-18.25,-317.5,-672.75,-133.0,872.75,1534.5,645.25,-638.5,2
107.5,-313.25,-868.5,-93.0,984.25,1618.25,6.25,-492.5,2
152.0,-275.75,-1007.25,-68.5,822.5,1374.25,-681.25,-545.5,2
261.75,-164.0,-1111.5,-182.75,569.75,1197.25,-802.0,-335.5,2
266.0,-51.25,-1201.25,-326.0,295.75,1084.5,-535.0,-422.25,2
245.0,-89.5,-1144.75,1457.25,125.5,1015.5,-338.5,-302.25,2
374.25,-8.25,-1108.25,1596.25,-366.5,945.25,-177.75,-298.5,2
479.5,59.25,-1034.75,1541.0,-1118.5,957.5,-540.75,-298.75,2
70.25,126.5,-1048.25,1412.75,-1772.75,954.5,-1003.75,-269.75,2
-135.75,168.75,-1097.0,1336.0,-1709.25,959.25,-1126.25,-278.0,2
-108.75,211.75,-1180.5,1371.25,-1351.75,985.75,-1046.5,-141.25,2
-111.5,198.0,-1010.0,1351.5,-871.5,936.0,-816.5,-71.75,2
15.0,128.75,-601.75,1278.5,-650.5,787.25,-129.75,85.25,2
182.0,28.0,-474.5,459.25,-589.25,698.5,713.25,151.75,2
539.25,-51.75,-450.25,-162.25,-512.0,752.75,1212.5,201.0,2
936.0,-52.25,-606.5,-400.0,-469.5,656.0,886.0,189.5,2
939.0,-59.5,-1197.0,-398.5,-416.5,512.5,134.75,163.0,2
514.5,37.5,-1494.0,-255.25,-388.25,298.25,-412.75,112.75,2
-72.25,101.75,-1468.0,-90.75,-351.25,115.0,-657.0,121.25,2
-337.75,126.75,-1224.25,151.0,-321.75,130.0,-612.75,209.75,2
-58.5,105.5,-750.0,597.75,-106.75,88.0,-190.0,269.0,2
329.25,3.5,-197.75,667.0,169.25,176.25,-84.75,319.25,2
709.0,-56.75,277.25,678.75,356.25,316.5,-389.25,323.5,2
920.5,-110.25,449.25,864.0,267.25,391.75,-91.25,354.5,2
712.25,-190.25,407.0,775.5,123.5,411.75,155.25,363.75,2
578.25,-294.25,304.0,468.75,24.5,331.75,334.25,366.0,2
942.0,-411.0,39.5,274.25,99.75,238.25,715.75,451.75,2
1401.0,-370.5,-138.25,138.25,65.25,276.75,870.25,614.75,2
1343.25,-225.75,-374.75,32.5,154.0,429.0,-30.75,624.5,2
698.25,-166.5,-483.25,71.25,525.5,495.0,-985.0,499.75,2
-936.0,-123.5,-332.5,268.0,678.5,430.75,-1038.75,511.75,2
-910.25,-71.25,-183.5,224.75,816.75,318.0,-878.75,602.75,2
387.0,-41.5,-54.0,-107.25,947.0,219.75,-970.5,795.0,2
814.75,-30.5,-72.0,-65.25,1031.0,115.25,-467.75,1036.0,2
1497.5,-34.0,-414.75,-377.25,1024.75,-117.25,-45.0,1254.25,2
1285.0,-59.0,-548.0,-731.25,992.25,-301.75,-207.5,1430.25,2
1162.25,-126.75,-272.25,-353.75,1030.75,-220.75,-641.5,1419.0,2
1172.5,-192.5,49.5,-609.0,986.5,-136.25,-670.75,1417.75,2
659.0,-230.75,602.5,-1007.0,1072.25,-266.75,-824.5,1309.5,2
304.75,-258.5,978.25,-1054.5,868.75,-561.0,-916.0,1026.25,2
-802.75,-249.5,1092.5,-1259.25,600.5,-876.5,-572.25,707.0,2
-1671.25,-169.0,1167.25,-1273.0,749.75,-1147.5,-526.0,415.75,2
-1632.0,-92.0,1150.25,-1275.75,1033.75,-1134.25,-607.5,51.0,2
-427.25,-119.75,1158.25,-1251.5,1312.75,-1104.5,-163.0,-335.5,2
16.5,-161.0,1157.0,-1228.0,1495.75,-1008.5,238.5,-586.5,2
-9.5,-178.0,1021.25,-1195.5,2133.25,-964.0,337.0,-631.5,2
323.25,-179.5,879.25,-305.5,2153.0,-968.5,498.0,-649.0,2
285.75,-173.5,845.5,748.75,2156.5,-910.25,747.25,-685.5,2
130.5,-248.75,623.25,887.5,2155.0,-753.0,882.5,-709.5,2
-33.25,-281.25,477.75,942.75,2150.0,-751.5,901.25,-720.75,2
208.25,-250.75,471.0,1000.75,2105.0,-757.75,639.25,-735.5,2
-120.25,-254.5,457.75,1018.5,1289.5,-653.0,314.25,-755.5,2
-623.25,-236.5,424.25,1068.75,433.25,-519.0,344.75,-770.75,2
-1290.0,-177.0,423.5,1114.5,438.75,-488.25,124.0,-819.5,2
-1149.5,-135.0,346.0,1146.5,1073.5,-433.5,-546.5,-683.5,2
-326.75,-80.75,290.25,1180.5,1843.0,-294.25,-657.25,-520.0,2
-94.5,-40.75,235.75,-92.75,1963.25,-309.25,-909.0,-383.0,2
-432.0,-45.5,107.5,-732.0,1924.0,-423.25,-1742.5,-235.0,2
-690.75,-76.75,0.5,-699.25,1683.5,-509.5,-1690.75,-90.75,2
-484.0,-91.75,-187.25,-682.0,1156.0,-598.75,-1238.75,24.25,2
-402.25,-62.0,-140.25,-713.25,639.0,-613.0,-257.25,98.25,2
33.75,-16.5,-14.0,-732.25,784.75,-583.25,6.5,209.25,2
-320.25,14.0,189.5,-670.75,524.5,-606.75,348.5,300.25,2
-36.75,-26.25,787.5,-481.75,-192.0,-504.5,799.75,351.5,2
1005.5,-32.75,1056.25,1382.0,-813.75,-306.0,1220.25,411.0,2
826.25,39.25,1130.75,1373.0,-1397.75,-137.0,1412.25,443.75,2
500.75,21.0,1014.0,1295.75,-1489.5,100.25,1308.25,420.25,2
-88.75,38.0,824.0,1262.25,-1630.5,330.5,1231.0,369.75,2
-432.5,143.75,659.0,-245.75,-1712.25,368.5,1455.75,457.25,2
177.5,25.25,375.25,-954.25,-1994.75,100.75,1826.0,891.5,2
959.5,-334.75,425.5,-1330.5,-2337.0,-222.25,1838.75,1023.0,2
1296.5,-42.75,158.75,-1281.5,-2351.25,-248.5,1339.25,849.5,2
1119.5,707.5,-412.75,-1176.75,-2282.75,-280.5,1421.25,682.0,2
61.25,651.75,-320.25,-1218.75,-2377.75,-405.75,1542.5,400.5,2
-859.25,615.0,-193.5,-1180.25,-2316.25,-623.0,1231.25,140.5,2
-1313.75,577.75,-94.5,-523.0,-2336.0,-765.0,1107.75,222.0,2
-1374.5,497.25,169.5,750.25,-2205.5,-550.75,743.0,205.0,2
349.5,479.5,336.0,1164.0,-1978.5,-561.0,712.5,420.0,2
752.25,192.25,570.25,1229.5,-1814.75,-386.0,538.0,581.5,2
367.0,111.0,648.25,872.25,-1608.5,-165.0,554.5,694.0,2
441.75,-19.5,716.5,114.75,-1427.75,-272.75,593.5,705.5,2
1254.5,-37.75,410.25,-278.5,-1211.75,-170.25,594.75,669.75,2
1164.75,-105.75,-70.75,-668.0,-1198.75,-11.5,566.75,649.25,2
928.25,-145.75,-454.0,-394.0,-1243.25,382.5,522.25,516.5,2
548.25,-119.0,-794.25,255.5,-1345.5,833.0,700.0,207.25,2
458.5,-47.25,-711.5,451.0,-1482.5,1022.5,734.0,-323.0,2
280.75,85.25,-712.5,680.5,-1532.0,897.0,788.75,-883.25,2
-461.25,14.0,-429.0,873.75,-1527.5,790.5,780.5,-1168.25,2
-550.75,-71.5,-56.75,1002.75,-1533.0,790.25,1013.25,-1006.5,2
-614.75,-119.0,310.5,814.75,-1381.5,795.5,1218.25,-753.5,2
-575.75,-163.5,643.25,435.0,-1019.25,924.75,1162.0,-330.5,2
-892.25,-301.5,518.0,155.25,-647.5,1090.25,1022.0,195.75,2
-911.5,-652.25,198.5,-190.25,-319.0,1453.5,-147.0,809.5,2
-1102.5,-998.5,183.0,378.25,-152.75,1669.75,-1312.5,1080.25,2
-1639.75,-981.5,431.75,1120.75,4.5,1673.75,-1616.0,641.75,2
-1378.5,-840.25,315.25,919.75,505.5,1622.25,-1961.25,-11.25,2
-687.75,-772.5,87.5,648.75,544.5,1445.75,-1446.0,-174.25,2
-193.25,-647.0,-75.5,476.5,515.25,1150.0,-822.25,-322.25,2
-453.0,-539.5,-344.0,637.5,937.25,987.0,-795.5,-716.5,2
-483.5,-304.75,-477.0,938.75,936.75,941.75,-518.25,-758.0,2
-260.0,-233.0,-351.75,975.0,910.0,718.5,-728.25,-568.25,2
210.75,-134.25,-266.5,907.75,797.5,279.0,-1109.5,-94.5,2
-147.0,-98.5,31.25,576.0,870.0,-195.75,-1571.25,262.0,2
-332.5,-150.5,401.5,405.5,929.75,-214.25,-1656.5,279.25,2
-71.0,113.75,882.25,540.25,851.75,-212.0,-1393.25,593.5,2
-588.0,280.25,1031.75,435.25,396.5,-556.75,-635.75,1227.5,2
-90.75,689.0,1147.5,-1407.25,-104.25,-1013.0,-222.75,1408.5,2
1292.0,1265.25,1044.0,-1908.75,-58.25,-1156.75,-423.5,904.0,2
1772.0,1171.75,922.75,-1727.5,-22.0,-1038.75,-375.5,684.75,2
1915.75,881.0,228.75,-1815.5,-55.75,-967.5,-192.75,646.5,2
1526.5,674.5,-696.5,-1693.0,188.5,-756.0,-201.0,521.25,2
1280.25,533.75,-941.75,-1647.0,436.25,-806.25,-354.0,479.5,2
1839.75,352.25,-972.75,-1288.0,808.75,-822.25,-452.5,126.5,2
1893.5,217.0,-618.5,-1056.75,968.25,-828.0,-492.75,38.5,2
1724.5,26.75,-515.5,-940.25,1227.75,-557.5,-797.5,-228.75,2
-232.0,-5.0,-1103.25,-1007.25,1494.0,227.5,-886.5,-350.25,2
-632.0,-149.25,-1015.5,-1074.75,1827.75,863.5,-381.75,-457.75,2
-652.0,-173.0,-1049.25,-933.25,2153.5,1078.0,-210.5,-414.0,2
-402.75,-297.5,-1036.75,-716.75,2287.5,1021.75,-742.25,-391.5,2
-476.75,-342.25,-1138.0,-493.75,2463.5,915.5,-1529.5,-305.0,2
-364.0,-156.0,-1357.75,-277.0,2429.0,738.75,-1957.5,-316.5,2
1816.5,-238.75,-1353.25,119.5,2016.25,570.0,-1769.25,-517.25,2
1805.25,-326.5,-1073.25,593.0,1514.75,250.5,-1200.25,-588.25,2
1680.75,-427.0,-659.5,995.5,1146.25,-19.0,-1244.25,-868.75,2
-933.5,-813.75,-165.25,1201.0,1294.0,-191.25,-2522.25,-960.25,2
-2058.5,-1364.5,471.75,1225.25,1574.0,-346.5,-2277.25,-753.75,2
-2144.5,-1352.0,550.5,1226.0,1601.0,-574.0,-1826.25,-309.5,2
-1851.0,-1099.5,49.75,1206.25,1601.5,-739.75,-1270.75,20.0,2
-2038.5,-984.25,98.0,1154.5,1250.0,-825.25,-260.5,341.25,2
-471.75,-748.5,359.0,1079.75,854.75,-1067.75,-765.75,491.75,2
-91.25,-329.75,638.25,963.0,641.75,-1077.0,-802.0,568.75,2
-8.5,311.5,1232.25,868.0,559.5,-1051.25,-982.0,506.5,2
180.25,498.0,1175.75,943.25,697.0,-1074.0,-1097.5,275.5,2
-97.0,440.25,1150.25,998.25,675.5,-1088.0,-847.25,193.5,2
-710.75,508.75,888.75,953.5,610.75,-1047.5,-402.5,153.5,2
-1666.5,351.25,848.5,931.25,274.5,-1009.25,213.5,287.5,2
-745.5,490.0,1038.75,824.0,32.0,-1020.0,178.75,152.5,2
640.5,644.75,889.0,514.0,-9.5,-924.0,394.0,-352.5,2
872.75,808.25,1029.5,187.75,-227.75,-849.75,440.5,-970.0,2
708.5,1114.25,1036.5,-56.25,-278.25,-762.0,604.75,-934.5,2
-435.5,972.75,983.25,-183.75,-141.0,-646.75,926.5,-653.25,2
-973.25,580.0,649.25,72.5,584.5,-493.5,1166.0,-470.5,2
-966.5,345.75,-396.0,519.0,1248.0,-330.0,648.75,-191.5,2
-1110.25,-180.0,-1008.5,438.75,1322.25,-162.5,37.0,-45.25,2
-1446.75,-716.0,-984.5,259.25,1257.0,-50.5,214.75,-131.0,2
-596.0,-811.0,-928.75,222.25,1066.75,-60.5,1240.0,-293.0,2
1126.5,-546.5,-1001.5,-213.5,297.25,-175.0,2287.75,-82.75,2
2406.0,-13.75,-1171.75,-426.0,-31.75,-165.75,2393.25,150.75,2
2085.0,-323.75,-1075.75,405.75,971.25,-18.5,1956.5,-334.75,2
1311.75,-1170.25,-870.25,863.5,1142.5,38.5,2036.25,-468.25,2
1413.0,-977.75,-1044.5,768.75,581.25,59.5,2287.75,-459.5,2
1380.5,125.0,-1200.25,894.75,319.75,27.0,1881.0,-354.5,2
690.5,789.0,-1079.75,1033.5,-323.5,-189.0,2772.0,-316.5,2
533.25,912.75,-310.75,947.75,-684.5,-374.25,2237.5,-536.0,2
533.5,902.25,661.75,815.75,-1054.75,-325.75,74.5,-494.5,2
-537.0,517.75,769.5,422.75,-1194.25,-89.75,-977.75,-388.0,2
-1296.0,203.5,594.25,402.25,-1021.75,207.0,-988.75,-190.0,2
-1479.25,-730.0,400.25,213.0,-884.75,404.5,-957.0,-97.25,2
-925.25,-978.0,219.75,168.0,-599.25,508.5,-954.75,99.5,2
-1067.25,-937.0,482.75,106.0,-460.5,451.5,-605.5,632.75,2
-1044.25,-859.75,915.5,104.25,-273.5,277.25,561.5,861.25,2
-950.0,-363.75,1288.75,97.0,-121.25,-34.0,1747.75,1008.75,2
-851.25,119.5,1561.75,13.5,4.75,-384.75,1970.75,1008.25,2
-894.5,793.75,915.75,-121.5,-509.5,-821.0,1004.75,-287.0,2
-760.25,349.75,428.75,-513.0,-954.75,-1083.5,612.0,-752.5,2
-72.0,348.75,654.5,-949.0,-770.5,-507.75,1416.25,-441.25,2
389.0,1066.25,735.25,-1083.25,-711.75,183.75,1203.0,-1179.75,2
652.25,1005.25,-135.0,-718.5,-423.0,773.0,1511.25,-537.75,2
1072.25,1085.5,-1119.5,-820.75,-1065.25,481.25,2146.75,147.5,2
1542.0,631.0,-1887.0,-761.0,-948.0,136.25,2055.5,294.25,2
1571.25,483.5,-1773.5,-594.5,-661.5,527.75,1947.75,105.25,2
1215.75,285.25,-1173.25,-517.25,-851.0,628.25,1605.5,163.25,2
1104.75,461.25,-613.5,-358.0,-480.75,688.5,1474.0,508.75,2
905.75,625.25,-32.25,-296.75,-701.25,834.0,-2.25,515.5,2
493.75,843.5,1151.5,-116.5,-449.5,837.75,-726.5,1015.25,2
-105.75,961.25,1960.0,-61.75,-23.0,872.0,-1085.5,744.75,2
-215.25,918.0,961.5,-42.75,258.75,827.0,-1066.25,418.5,2
-85.25,829.25,-910.75,205.25,274.0,870.5,-1004.25,-218.25,2
-236.25,-285.0,-1685.75,723.0,-141.75,1058.5,-1387.25,-819.5,2
-1310.25,-1545.0,-1430.75,1233.25,-639.0,1185.5,-932.75,-1124.25,2
-1731.75,-1856.0,-735.0,1140.0,-1118.5,759.5,-430.0,-1331.75,2
-1159.5,-1684.5,-101.25,963.75,-1223.0,88.25,-808.0,-981.25,2
-691.0,-1724.0,700.75,848.5,-1047.25,-374.0,-1355.25,-726.25,2
-517.25,-1547.25,1435.75,660.25,-821.5,-736.0,-1140.75,-713.75,2
-137.5,-1250.5,2302.75,616.75,-1016.5,-803.5,-1595.5,-645.0,2
274.25,-752.25,2096.0,327.0,-1286.0,-912.0,-1336.25,-305.0,2
599.5,-216.0,2033.75,84.25,-1864.0,-964.25,-947.75,5.0,2
181.5,-203.0,1873.25,-79.25,-2181.0,-628.75,-476.0,78.5,2
133.75,-174.75,1267.75,-82.25,-1706.75,49.25,-213.0,128.5,2
-240.5,-111.25,849.75,165.75,-1274.5,995.0,997.0,308.25,2
-219.75,40.75,863.75,292.5,-945.25,1110.5,1364.5,332.75,2
-394.5,61.0,362.25,324.75,-827.5,1054.25,1317.0,360.0,2
-524.25,197.0,76.75,223.75,-905.75,987.5,1581.0,345.75,2
-114.25,200.25,63.25,117.0,-1158.5,1069.0,1002.0,437.25,2
-297.25,143.0,-916.5,80.25,-1614.75,952.25,1168.25,499.75,2
-713.0,38.25,-2063.5,30.5,-1309.0,769.0,1886.25,573.25,2
-478.25,20.0,-1775.25,-38.0,-609.75,705.5,2410.75,503.75,2
-762.75,217.25,-1059.25,-23.75,-566.0,727.25,2432.25,322.75,2
-1277.5,146.5,-739.0,-44.5,-479.5,704.75,2324.75,226.25,2
-1355.0,113.25,-547.75,-146.0,-99.0,-286.75,2066.75,190.5,2
-1272.75,-58.25,-720.5,-261.75,33.75,-1183.25,1433.75,335.0,2
-1153.0,-78.5,-188.75,-281.25,-476.25,-1113.5,526.25,291.5,2
-996.0,118.0,383.5,-222.5,-987.75,-721.75,-260.0,320.25,2
-961.5,109.75,-9.5,-132.5,-696.25,-560.5,-1976.5,375.0,2
-1105.25,-11.0,-43.0,-17.75,-163.0,-680.75,-2794.0,342.5,2
-1127.75,-82.5,-32.5,-48.75,362.0,-805.25,-2784.0,301.25,2
-455.5,-184.25,272.75,-13.0,766.25,-864.25,-2475.25,399.25,2
477.5,-321.5,-172.25,86.75,563.25,-835.0,-2019.0,571.0,2
671.75,-186.75,-177.75,-82.75,-50.25,-771.5,-1995.0,592.5,2
819.25,68.25,-87.25,-186.0,-761.5,-707.75,-1704.75,589.5,2
915.25,314.5,521.75,-235.75,-952.25,-580.5,-1499.75,518.75,2
608.25,516.75,734.0,-289.5,-377.5,-582.0,-1548.5,458.75,2
264.75,686.75,-115.5,-323.75,-148.0,-598.25,-1610.75,476.25,2
-207.5,789.0,-160.5,-436.25,474.5,-611.25,-1619.75,720.75,2
-434.0,703.75,-419.75,-422.5,438.5,-594.25,-1244.5,847.0,2
-264.25,522.0,-1280.25,-396.5,215.0,-535.25,-966.0,635.5,2
-49.5,308.75,-1878.5,-304.5,512.0,-478.0,-957.5,270.25,2
-690.25,136.25,-1759.0,-281.5,1304.25,-356.5,-1308.0,-166.5,2
-817.0,9.25,-1367.0,-352.25,2032.5,-239.5,-1714.25,-566.0,2
138.75,-6.0,-1563.5,-444.0,2041.0,-159.5,-1637.75,-789.0,2
972.75,-45.75,-1688.25,-509.0,1782.0,-21.75,-1869.5,-790.25,2
1436.0,-85.5,-1215.0,-512.25,1506.5,139.0,-2466.0,-677.5,2
1842.5,-24.5,-439.0,-563.75,1368.75,277.5,-2480.25,-471.0,2
1716.0,55.75,-311.75,-555.75,1291.5,436.25,-2089.0,-210.5,2
1272.25,233.0,-216.5,-526.5,1355.25,486.75,-1781.25,37.5,2
1146.75,373.25,-145.0,-520.5,1394.0,342.75,-1640.0,222.25,2
592.5,293.5,-139.0,-473.0,1254.0,192.5,-1505.0,337.25,2
532.5,-13.75,-89.0,-374.75,1413.5,50.25,-1666.25,359.25,2
119.0,-204.25,-42.0,-336.0,1442.75,-47.75,-2081.5,306.25,2
-138.0,-223.5,19.25,-295.5,1410.5,-37.25,-2444.75,114.75,2
384.5,-123.75,145.75,-266.5,1403.75,89.5,-2772.0,-60.0,2
806.0,45.25,316.75,-191.5,981.5,282.0,-2774.0,-8.0,2
1151.0,189.25,233.5,-109.75,626.5,146.75,-2593.0,33.75,2
1612.25,413.25,-497.25,-75.0,118.75,7.0,-2510.5,31.25,2
1465.0,530.75,-1510.25,-7.25,-519.0,42.0,-2476.25,26.5,2
932.25,350.25,-1910.0,36.0,-1043.75,23.75,-2076.5,-9.5,2
668.5,205.5,-1924.25,104.0,-1022.75,50.5,-1687.0,-114.25,2
567.5,180.75,-1544.25,106.5,-726.25,-73.0,-1512.5,-332.0,2
423.0,154.75,-1131.0,66.25,-504.5,-171.25,-842.0,-534.25,2
46.0,212.75,-464.25,38.75,-120.5,-141.25,-429.25,-626.25,2
-5.25,261.5,-222.25,-18.5,-31.25,-158.25,-293.0,-682.0,2
116.5,324.0,-446.25,-15.75,21.0,-195.75,-207.75,-725.75,2
-31.5,430.75,-781.25,34.0,-74.75,-127.25,320.25,-496.0,2
-351.5,593.5,-349.75,65.0,-274.0,65.25,1081.0,-75.5,2
-879.5,672.0,1371.75,81.75,-360.0,43.5,1225.5,223.25,2
-1217.75,405.0,1179.0,72.5,-454.0,-89.5,1089.5,407.0,2
-1559.5,127.75,-6.75,22.5,-470.75,-266.5,929.75,461.75,2
-1766.75,-91.5,-166.75,34.5,-617.75,-584.5,797.5,558.0,2
-1610.25,-284.0,389.75,49.0,-630.5,-733.0,529.25,475.5,2
-1430.0,-84.5,-484.75,12.0,-659.5,-846.75,304.5,157.25,2
-1158.75,55.5,-773.5,13.5,-682.25,-953.5,59.0,-81.5,2
-430.75,-31.0,1002.0,48.0,-525.0,-915.25,190.25,-343.75,2
598.75,-84.75,650.75,87.0,-424.25,-825.5,409.75,-605.5,2
1435.0,-10.0,231.25,110.75,-142.5,-630.0,525.5,-651.0,2
1713.75,228.75,-173.0,119.0,38.75,-442.0,744.0,-486.25,2
1508.0,-18.5,-384.0,128.0,333.0,-243.75,690.25,-257.75,2
1183.5,-573.75,-1950.75,74.75,1102.75,-108.0,746.25,74.5,2
1082.0,-759.25,-1931.25,20.5,1425.5,-47.5,780.0,540.75,2
511.0,-944.5,-1138.25,-41.5,962.5,16.5,867.25,811.0,2
167.5,-872.5,-749.0,-205.5,257.5,43.0,1219.0,929.75,2
-268.75,-396.0,1071.75,-295.0,-205.5,93.5,1593.5,808.75,2
-713.5,-74.25,1581.5,-107.5,-146.5,209.25,2056.75,753.5,2
-781.75,22.5,1953.75,126.5,-358.25,204.0,2240.25,1393.75,2
-1155.25,108.5,1910.25,-9.75,-479.0,39.75,2327.5,1414.5,2
-1213.0,652.0,1900.0,-238.0,-399.75,28.75,2209.25,1259.0,2
-1092.0,1447.25,1954.0,-353.25,-735.25,87.0,2112.25,873.5,2
-1221.5,1150.25,2083.75,-355.25,-671.5,102.0,2131.5,523.5,2
-1173.25,447.25,1989.75,-233.75,-291.5,129.25,1444.25,224.25,2
-1193.0,791.0,1206.5,-221.25,-557.5,9.25,1793.5,133.25,2
-1302.75,471.25,-8.25,-234.25,-644.5,-73.75,1660.0,-25.0,2
-1026.0,-758.75,-1426.75,-359.25,-1206.0,-178.25,1438.0,-704.0,2
-378.75,-1062.75,-2106.25,-585.5,-1513.0,-258.75,1376.5,-931.75,2
-299.5,-1098.0,-1674.0,-71.75,-152.5,55.0,882.5,-1398.0,2
-570.25,-1449.5,-1128.25,472.75,-9.25,157.75,1232.0,-1239.5,2
-748.75,-790.5,-1022.5,267.75,-283.25,83.0,1339.0,-747.75,2
-790.75,-25.75,-1024.75,78.0,132.75,105.0,1279.5,-468.75,2
349.0,458.0,-952.0,-128.5,-133.25,-13.25,1297.75,182.5,2
1155.75,850.0,-808.75,-209.5,449.75,14.25,1264.5,303.25,2
1226.5,744.5,-749.0,-270.5,922.0,54.0,1327.0,182.75,2
1387.75,1099.25,-906.75,-611.0,1086.0,-135.25,1342.5,-153.25,2
1424.0,1457.75,-1026.5,-709.25,1013.0,-431.75,1473.5,-367.0,2
1363.25,1202.5,-1107.25,-608.0,800.0,-732.0,1713.5,-256.75,2
1230.25,584.25,-1048.0,-532.75,306.0,-860.5,1763.25,-385.5,2
855.0,533.0,-1023.0,-451.25,27.5,-860.25,1801.0,-247.75,2
-186.25,535.0,-958.75,-325.75,192.25,-336.0,1586.0,-40.5,2
-970.0,333.25,-816.25,-201.25,759.25,1210.5,1290.5,-383.0,2
-1360.75,232.25,-740.75,-30.75,1361.5,1440.5,1219.75,-673.0,2
-1458.5,1208.5,-671.0,103.75,1729.25,1632.0,1083.0,-751.5,2
-1473.0,2004.25,-463.5,251.75,1514.25,1749.75,832.25,-591.25,2
-1503.25,1881.25,61.5,389.25,1344.75,1883.5,236.5,-378.5,2
-1391.5,-268.0,288.75,484.5,1352.25,2062.75,-252.5,-6.75,2
-1113.25,-179.0,534.5,548.5,1024.75,2184.75,-526.5,258.0,2
-808.75,-251.5,774.5,666.0,1043.25,2289.5,-611.25,-20.75,2
-631.5,-747.25,1377.5,710.25,937.75,2078.5,-596.75,-51.5,2
-370.5,-918.25,1496.5,670.5,1218.25,1684.0,-915.75,-11.5,2
-114.5,-1550.75,1503.75,676.5,932.5,1258.75,-837.75,-156.75,2
96.0,-906.5,1309.75,769.75,390.0,763.5,-789.0,-56.5,2
470.25,-247.0,993.75,821.25,-343.0,420.75,-1052.5,98.0,2
851.75,-418.5,879.75,777.0,-711.75,219.0,-1390.25,230.0,2
1066.75,-575.25,433.25,733.0,-820.0,108.25,-1867.0,528.0,2
1284.0,-475.25,198.5,692.25,-706.0,101.75,-2070.0,409.5,2
1427.25,-1978.25,-33.5,636.25,-506.5,96.0,-2049.25,57.75,2
1387.25,116.5,-118.0,596.25,-384.5,127.0,-2085.75,-147.5,2
1223.75,153.75,-4.0,617.25,-291.5,238.5,-1974.5,-322.75,2
920.0,126.25,105.0,576.0,-255.25,369.25,-1803.25,303.25,2
386.5,57.75,552.5,520.5,-513.75,524.25,-1831.0,665.5,2
-5.25,39.5,832.0,457.0,-995.5,606.75,-1747.5,761.75,2
-95.75,-1988.0,1579.5,355.25,-1325.5,622.25,-1586.0,1180.0,2
-291.5,-2002.25,1890.0,263.5,-1176.0,643.5,-1442.0,1184.0,2
-326.5,-1234.5,1269.25,152.25,-667.0,590.5,-1249.25,770.5,2
-221.0,-558.75,-130.5,75.75,-44.5,491.25,-1195.5,-54.0,2
-357.5,-113.25,-626.25,88.75,160.75,410.75,-1070.0,-391.0,2
-606.75,1847.0,-948.0,58.25,145.75,433.0,-933.75,-176.25,2
-659.25,1802.25,-1193.25,-18.5,-301.75,432.75,-741.0,-230.0,2
-611.25,1357.75,-938.75,-74.5,-1254.0,375.25,-540.25,-419.25,2
-518.5,288.5,-121.0,-77.0,-1745.75,345.5,-310.5,-531.5,2
-310.75,-116.0,700.25,-51.75,-1929.75,275.0,30.0,-751.75,2
-327.5,-133.25,670.75,-70.5,-1683.75,220.25,245.75,-534.25,2
-394.25,-343.0,-133.25,-74.75,-1817.25,230.25,482.0,-19.25,2
-384.0,-109.75,-1229.5,-109.5,-1509.25,237.5,657.25,715.75,2
-446.0,-360.75,-1291.5,-147.25,-1184.25,211.5,604.25,1324.75,2
-595.0,-143.25,-1232.75,-143.5,-1061.0,149.75,327.25,1731.25,2
-567.75,871.5,-1134.75,-168.75,-1148.25,5.5,46.25,1732.25,2
-274.75,1154.0,-517.0,-190.0,-1768.0,-77.25,40.0,1232.75,2
-52.75,72.75,-97.0,-187.5,-1411.0,-69.0,221.0,911.0,2
-5.5,36.75,309.0,-214.0,-1488.75,-245.25,419.0,500.25,2
53.25,210.25,890.0,-303.0,-1706.75,-478.25,575.25,-19.0,2
-64.5,786.0,1137.5,-336.25,-1399.25,-492.25,684.5,-301.0,2
-352.75,2122.25,1160.75,-324.5,-1423.5,-550.25,679.0,-49.25,2
-564.75,2069.0,565.75,-313.75,-1074.75,-543.75,694.75,210.5,2
-669.5,1888.5,-931.25,-261.25,-577.0,-387.5,585.0,549.75,2
-589.5,684.5,-1103.75,-179.75,-7.75,-378.25,422.0,521.5,2
-425.0,-281.75,-1065.5,-178.25,285.75,-589.25,425.75,-249.0,2
-309.25,-76.5,-1008.0,-237.0,336.25,-859.75,431.5,-550.75,2
-351.5,-67.0,-1196.5,-231.5,430.5,-1067.75,331.5,-864.75,2
-373.25,854.75,-571.75,-247.0,741.25,-1338.5,19.5,-864.25,2
-348.25,1941.25,8.5,-274.25,1270.75,-1406.0,-284.75,-337.5,2
-255.5,1824.25,238.5,-236.75,1428.5,-1446.25,-372.25,259.75,2
-61.75,965.5,458.75,-138.5,1174.25,-1578.0,-346.0,262.0,2
153.5,350.5,533.75,-65.25,911.75,-1719.25,-392.75,109.25,2
229.5,304.25,533.5,-103.75,1140.75,-1786.75,-385.5,249.75,2
168.5,718.25,56.25,-148.75,1545.0,-1694.25,-385.5,-194.0,2
188.75,1510.25,12.0,-106.0,1363.75,-1631.75,-409.0,-525.75,2
189.75,1339.0,1017.25,-68.25,824.5,-1482.25,-420.75,-707.5,2
114.0,1123.0,1114.75,-97.0,784.25,-1373.5,-442.0,-615.0,2
20.25,928.75,1099.0,-78.0,1061.5,-1300.25,-448.5,-107.25,2
-26.25,-1132.0,430.75,-18.25,1329.75,-1181.0,-496.75,185.25,2
-92.75,-1293.25,-399.0,-0.75,1500.75,-1056.25,-495.5,284.0,2
-277.75,-1374.5,-1139.75,54.75,1173.0,-976.75,-488.75,146.5,2
-509.75,-1426.25,-1087.75,78.25,387.5,-999.75,-580.75,-274.5,2
-663.75,-1293.25,-1070.5,69.25,-741.25,-1031.75,-660.5,-533.0,2
-758.0,-929.0,-1121.75,48.0,-926.25,-1076.25,-729.75,-491.5,2
-896.0,-106.25,-570.0,62.0,-1028.5,-1035.0,-764.75,-459.25,2
-902.75,254.25,-218.25,93.5,-1057.25,-1019.75,-862.75,-450.5,2
-846.0,408.25,180.75,78.0,-911.25,-924.25,-955.0,-385.5,2
-690.75,426.5,140.5,6.0,99.5,-798.75,-807.5,-237.5,2
-417.25,441.75,283.5,-36.25,764.25,-693.5,-800.25,-465.75,2
-193.0,467.25,131.25,20.5,311.0,-527.75,-981.25,-678.75,2
52.0,431.0,-26.25,83.0,-698.5,-343.25,-1033.25,-825.5,2
165.5,-1205.75,-53.0,120.75,-1495.0,-81.0,-1058.0,-702.25,2
343.75,-1592.5,43.25,21.75,-1558.25,107.75,-1173.75,-576.75,2
542.75,-1540.5,-256.5,-34.75,-1235.25,191.0,-1128.5,-453.0,2
570.25,-1472.75,-549.5,-28.75,-313.75,253.0,-1024.0,-398.0,2
585.5,-1458.0,-348.0,-47.5,-562.5,360.25,-734.5,-401.0,2
274.25,-1373.25,-431.5,-6.0,-262.5,308.5,-241.75,-173.25,2
-60.5,-1268.25,-231.25,33.25,-74.25,230.0,89.75,-35.5,2
-387.75,-1233.25,-62.0,65.0,-122.75,389.5,257.25,-295.0,2
-1003.25,-355.5,1.0,121.5,-71.5,541.75,577.5,-887.5,2
-997.5,672.25,-60.0,243.75,312.25,709.75,929.25,-1333.0,2
-439.25,880.25,-307.75,263.0,372.5,800.0,792.5,-1461.5,2
199.25,838.0,-406.5,231.0,542.0,676.25,617.5,-1475.75,2
718.5,749.0,-672.25,210.0,975.25,534.75,749.25,-1301.5,2
708.0,663.5,-853.5,158.25,1546.25,373.5,1242.0,-1353.5,2
557.25,406.5,-652.75,133.0,1332.25,255.5,1419.5,-1255.0,2
265.0,341.0,-174.0,107.75,1286.75,271.5,1367.0,-1000.5,2
-165.5,291.0,162.5,49.0,1575.25,295.5,1097.5,-879.5,2
-752.0,277.25,301.25,36.5,1372.25,415.75,827.75,-688.0,2
-1002.25,288.75,423.25,34.5,1213.25,654.0,705.75,-522.25,2
-1036.25,318.25,281.75,-24.75,872.75,859.0,814.0,-466.25,2
-1190.5,440.75,-6.5,-42.5,965.25,896.0,1141.25,-558.25,2
-1285.25,323.0,-61.25,6.75,1522.5,767.0,1375.75,-766.75,2
-1122.75,68.0,38.5,57.75,1863.25,671.5,1507.25,-800.5,2
-35.75,-19.0,108.25,109.25,1243.5,665.25,1453.0,-286.25,2
1171.75,-209.75,165.25,114.0,678.75,637.25,1241.5,20.75,2
856.0,-267.0,198.5,2.0,980.5,539.25,907.0,286.5,2
-388.25,-319.5,191.75,-108.25,1320.25,431.0,628.0,610.5,2
-1131.0,-419.5,194.25,-207.25,1429.75,347.0,415.75,706.5,2
-770.0,-319.75,207.25,-260.0,1596.75,345.75,253.75,871.5,2
755.5,-263.0,380.25,-190.5,1855.0,419.0,108.25,987.0,2
1133.25,-136.75,565.25,-98.0,1952.5,356.5,-70.75,1138.0,2
1314.25,-10.25,490.5,31.0,1714.5,308.75,-189.0,1228.0,2
640.25,-72.75,320.75,346.5,1537.25,315.5,-221.25,1084.5,2
-312.5,-194.0,159.75,581.5,1578.5,231.75,-33.25,894.25,2
-692.0,-225.5,61.75,295.5,1573.0,82.5,152.5,791.75,2
-137.75,-278.5,182.25,-66.75,1423.0,-146.5,205.5,837.5,2
1095.5,-353.75,235.5,-404.5,1015.75,-301.0,148.5,1018.75,2
949.25,-417.0,394.0,-649.5,892.5,-345.25,-50.0,1150.75,2
975.25,-316.75,653.25,-600.5,795.0,-305.5,-217.0,927.0,2
690.0,-103.25,854.25,-453.0,81.75,-263.25,-355.0,826.25,2
305.0,110.5,712.75,-184.5,-424.25,-278.75,-337.75,694.0,2
462.75,272.75,119.0,91.25,-282.25,-323.5,-261.0,623.5,2
893.0,125.25,-174.75,424.75,89.75,-305.0,-251.0,797.75,2
1309.25,-75.0,-551.0,526.25,312.0,-230.5,-202.75,906.0,2
1500.75,-281.5,-866.75,502.25,138.75,-226.5,-40.75,1072.5,2
1388.75,-516.0,-782.5,255.5,-309.5,-233.25,160.5,1189.5,2
576.0,-652.0,-413.5,-50.75,-566.5,-189.0,406.75,1329.5,2
-1247.0,-802.5,-127.25,103.75,-581.0,-167.25,710.25,1486.75,2
-837.25,-912.75,-58.75,-114.25,-412.25,-198.5,755.0,1572.25,2
-357.25,-884.25,25.5,-486.25,-432.75,-315.5,512.75,1526.5,2
102.75,-665.5,-118.0,-634.0,-837.25,-560.25,368.25,1172.5,2
-446.5,-350.5,-223.25,-677.0,-1113.5,-791.25,520.0,965.0,2
-1212.75,-199.25,-100.75,-557.75,-1181.0,-908.25,817.25,1226.25,2
-1224.5,-57.25,143.0,-794.75,-1156.25,-979.75,1084.0,1448.5,2
-1406.0,-53.75,475.5,-930.75,-1030.5,-997.75,1212.25,1365.25,2
-1274.75,-44.0,790.25,-205.5,-1467.5,-1065.0,1201.25,1383.5,2
-787.5,194.0,804.5,399.75,-2004.25,-1070.0,1099.25,1470.0,2
1219.75,420.5,766.75,673.75,-1904.5,-1012.5,1002.75,1319.0,2
1098.5,723.75,676.0,862.0,-1823.75,-999.0,953.25,968.75,2
1007.75,892.25,440.75,836.75,-1527.0,-977.25,841.25,760.25,2
1445.75,829.75,364.5,777.25,-1337.0,-969.75,772.25,646.5,2
2282.25,791.0,187.25,788.75,-1447.0,-884.5,789.25,492.0,2
2546.75,658.75,-151.75,867.0,-1373.25,-817.5,563.0,234.75,2
2157.0,113.75,-204.75,828.25,-1031.5,-394.5,118.5,-179.5,2
-798.25,-406.0,-105.5,676.0,-840.25,-79.0,26.25,-349.5,2
-1575.25,-295.5,-235.25,420.5,-1323.25,-163.25,325.75,-200.5,2
-1761.25,-177.75,-3.75,166.5,-2280.75,-8.25,320.5,-315.5,2
-1422.5,-268.75,-264.0,-155.5,-2990.75,250.75,236.5,-220.75,2
-279.5,-18.0,-709.5,-358.5,-2985.75,423.0,175.5,-342.5,2
-129.75,95.25,-241.0,-440.25,-2839.75,866.25,148.0,-596.75,2
-179.0,263.75,901.0,-374.25,-2586.0,1202.25,230.0,-628.0,2
-977.5,328.5,1245.0,204.0,-2393.0,1290.0,285.5,-448.75,2
-1545.0,318.5,1252.25,706.0,-1991.25,1282.75,359.75,-180.5,2
-1260.5,335.5,1124.5,781.75,-616.25,1359.0,284.0,-164.0,2
-1438.25,279.25,1091.75,775.25,-478.75,1463.25,212.5,-357.0,2
-1541.0,289.25,438.25,546.75,-422.0,1580.0,136.5,-849.0,2
-1964.0,224.25,110.75,413.5,-375.25,1697.25,133.75,-865.25,2
-2737.5,213.5,-147.0,239.0,-347.0,1700.5,36.5,-896.0,2
-2780.25,226.25,-595.75,-47.25,-292.25,1740.75,-172.5,-885.5,2
-2398.75,293.25,-527.75,-348.75,-282.25,1713.5,-246.5,-886.0,2
-1746.5,377.0,-597.5,-641.0,-280.0,1669.25,-353.5,-895.0,2
-767.0,473.5,-781.25,-1129.0,-307.75,1466.5,-421.25,-913.25,2
107.75,502.75,-1127.0,-1415.0,-253.75,1296.0,-552.75,-924.75,2
243.0,486.25,-1416.0,-1473.5,-563.25,1108.25,-746.5,-907.75,2
474.25,491.75,-1345.0,-1529.25,-845.75,913.0,-756.5,-917.75,2
195.25,456.0,-1070.0,-1518.25,-211.75,788.5,-668.75,-918.5,2
-269.0,401.0,59.75,-1532.5,94.0,718.5,-680.5,-972.5,2
-459.25,381.25,196.25,-1020.25,212.0,719.25,-883.5,-1020.75,2
-421.75,369.0,-238.25,-800.75,325.75,644.25,-993.5,-1047.25,2
-118.75,335.0,244.75,-847.5,70.75,536.0,-902.25,-1007.75,2
-48.25,398.25,658.5,-708.0,-806.0,309.0,-814.25,-892.5,2
352.5,470.25,648.0,-269.0,-731.5,128.5,-584.25,-721.0,2
697.5,322.75,801.0,466.0,-112.0,-37.5,-414.75,-628.25,2
1213.25,201.25,591.0,605.75,-149.75,-244.25,-540.5,-630.25,2
1688.75,208.0,452.0,617.25,-124.25,-303.75,-807.0,-583.75,2
2358.25,158.0,-93.0,576.5,-30.0,-493.25,-885.25,-549.0,2
2408.25,183.0,-552.75,522.5,405.25,-582.0,-818.0,-684.25,2
1401.75,20.0,-517.5,824.0,999.25,-656.5,-785.75,-850.0,2
442.25,-53.75,-752.0,1164.75,900.5,-1022.5,-561.0,-1044.5,2
-554.0,135.25,-766.5,1138.0,352.25,-1215.75,-192.25,-988.25,2
-1195.5,176.75,-622.75,321.5,82.5,-1334.75,298.0,-940.25,2
-1209.5,167.5,-524.0,-884.25,-297.5,-1357.75,640.75,-920.0,2
-972.25,77.25,-418.75,-1485.5,28.75,-1236.0,860.25,-919.0,2
-1107.5,34.0,-218.75,-1390.5,-17.0,-1017.25,838.25,-601.75,2
-1320.75,-203.5,-123.75,-646.75,809.0,-598.75,545.75,-209.75,2
-1406.5,-470.25,-77.25,270.75,725.5,-719.5,514.5,387.75,2
-1811.75,-352.25,-83.0,399.0,485.0,-936.0,692.0,996.75,2
-1875.0,-317.0,-115.5,133.0,1267.0,-704.25,1025.75,1094.0,2
-959.75,-264.75,-204.5,-270.0,1669.0,-610.75,1119.25,1140.75,2
451.5,-328.25,-186.5,-82.25,2020.5,-385.0,812.75,1204.75,2
1761.5,-342.75,28.5,268.0,1600.75,-159.0,100.0,1342.25,2
2343.75,-231.25,168.75,1110.25,1303.25,31.0,-639.0,1417.5,2
2446.0,-205.5,194.75,2011.25,1469.0,301.5,-992.25,1477.25,2
2634.0,-84.25,64.75,1617.25,1018.25,279.0,-709.25,1545.0,2
2828.5,93.5,-193.75,504.0,566.0,-31.25,211.5,1665.75,2
2498.0,406.0,-461.25,-255.25,569.75,-213.5,1048.5,1859.0,2
1128.5,590.75,-764.0,-347.0,724.75,-467.75,1549.75,2092.25,2
294.5,563.75,-727.75,-2123.5,760.25,-692.0,1275.5,2040.0,2
-228.25,519.25,-344.25,-2295.75,1026.0,-526.0,257.25,1923.25,2
-176.5,453.0,-35.5,-2274.75,1307.25,-248.5,-891.5,1851.5,2
-100.75,250.25,339.25,-2256.0,1599.25,28.0,-747.0,1753.25,2
-120.5,107.5,671.0,-1465.0,1660.75,254.5,-579.75,1540.25,2
-821.25,-38.5,995.25,-66.75,1608.75,374.0,-338.5,1307.75,2
-1409.5,-223.0,1217.0,976.5,1261.25,415.0,-75.25,1075.0,2
-1815.5,-289.5,1078.0,1943.75,829.5,429.75,-207.75,824.0,2
-2343.25,-260.5,931.0,2200.25,337.25,431.25,306.0,580.25,2
-2351.0,-223.75,727.75,1751.75,292.25,395.25,428.75,291.0,2
-1892.25,-270.0,711.0,1484.0,393.25,337.0,319.75,-57.0,2
-966.75,-264.0,629.75,1538.5,134.25,222.25,396.0,-259.0,2
-386.0,-290.0,448.75,1391.0,483.5,210.5,-105.75,-441.0,2
-301.0,-328.5,201.0,386.25,725.0,238.0,-350.0,-741.5,2
-74.75,-361.0,-162.25,376.25,850.0,336.5,-554.75,-1071.25,2
98.25,-410.25,-46.0,891.25,930.25,368.25,-840.25,-1410.0,2
413.25,-384.0,375.25,2048.5,983.0,317.0,-972.5,-1701.5,2
736.0,-367.25,545.0,2324.0,952.25,305.0,-1050.0,-1671.0,2
807.75,-281.25,380.5,2312.0,805.25,219.25,-294.0,-1630.5,2
581.75,-212.75,41.5,1465.5,573.75,-9.75,916.75,-1613.0,2
583.25,-269.0,-290.75,665.25,218.25,-60.5,914.75,-1626.75,2
305.25,-367.75,-402.5,302.75,325.75,182.75,452.75,-1592.25,2
-264.0,-455.75,-394.0,-794.5,444.25,214.5,71.0,-1516.75,2
-494.0,-489.5,-225.25,-1202.25,278.25,181.25,-713.0,-1415.75,2
-626.25,-515.5,-74.5,-848.0,245.25,253.75,-595.25,-1037.25,2
-715.5,-565.25,-51.0,-1060.75,519.75,348.5,-246.5,-291.25,2
-1127.25,-606.0,-104.0,-875.25,493.5,603.5,566.75,491.25,2
-1530.0,-533.75,-298.25,-894.75,329.75,789.25,911.5,903.25,2
-1558.25,-366.0,-509.75,-1071.75,392.25,818.5,645.75,749.25,2
-1598.25,-230.25,-777.5,-282.75,197.25,648.0,677.25,410.0,2
167.75,-223.75,-692.75,19.5,110.25,174.5,722.0,103.0,2
-347.0,-468.75,78.25,492.25,-17.75,-403.0,143.25,185.0,2
288.5,-390.75,664.75,2567.75,-629.5,-1091.0,-454.0,306.0,2
1248.75,-324.5,629.25,2547.5,-1887.25,-1422.0,-597.0,411.5,2
746.25,-401.0,763.75,2226.5,-2942.0,-1442.25,-85.5,601.0,2
-1491.5,-317.75,636.25,1790.25,-2999.75,-1198.25,283.25,665.25,2
-1265.75,-206.5,299.25,1114.0,-2973.25,-1037.75,350.0,785.5,2
-1085.25,-128.25,-33.75,-359.0,-2960.25,-861.0,368.5,895.0,2
-339.75,-81.0,-395.0,-1131.5,-2884.0,-288.75,-213.0,555.25,2
511.5,-69.75,-359.5,-1176.5,-2820.25,109.0,-519.25,135.75,2
812.0,-4.5,-236.5,-795.25,-1551.5,-128.5,-397.5,-262.25,2
600.25,106.0,-177.0,-981.0,-582.25,-71.5,-293.0,-723.0,2
531.5,224.25,-270.5,-905.25,-72.0,-153.25,-131.25,-1000.0,2
-455.75,256.75,-210.25,153.75,346.75,-150.25,-181.5,-897.0,2
-1141.75,332.75,-52.25,826.25,597.0,4.75,-335.25,-857.25,2
-1507.25,420.25,-80.5,1104.75,827.75,43.0,-423.75,-874.25,2
-1365.5,487.75,-288.25,1486.25,1409.5,231.25,-345.75,-861.5,2
-535.5,428.0,-433.25,861.75,1598.5,282.75,-418.5,-820.25,2
241.5,388.75,-465.0,-302.5,1613.75,304.5,-717.75,-750.25,2
853.0,351.0,-585.75,-1460.75,1638.0,291.25,-785.0,-724.5,2
1086.5,344.75,-609.5,-2168.75,1683.25,375.5,-475.25,-719.25,2
1101.75,345.75,-481.5,-2582.0,1784.75,367.75,-358.75,-740.0,2
778.75,301.25,-350.5,-2573.75,1929.0,-53.75,-619.5,-724.75,2
613.0,283.25,-251.75,-2131.0,1871.25,-706.75,-636.0,-703.25,2
550.75,283.0,-258.0,-910.5,868.75,-1053.75,-621.0,-532.5,2
726.75,317.75,-313.25,197.5,32.0,-1146.5,-522.25,-66.0,2
1053.0,306.5,-277.0,1249.0,-245.0,-1316.25,-459.5,259.25,2
497.75,139.0,-142.5,1741.0,167.75,-1100.25,-413.25,712.0,2
-364.75,104.25,-11.5,1529.5,371.75,-775.0,8.75,1070.5,2
-611.5,139.0,27.0,772.75,617.5,-599.5,-478.25,1132.75,2
-814.25,119.75,-43.25,37.5,425.5,-606.75,-1121.25,1137.75,2
-760.5,98.25,-181.0,110.25,347.5,-699.0,-1007.25,1011.0,2
-497.0,186.75,-335.0,-210.0,-556.5,-1175.5,-1149.25,1086.25,2
561.25,691.0,-561.25,-139.75,-1790.25,-1436.0,-517.75,1065.5,2
994.75,489.75,-232.5,79.75,-1618.75,-491.75,-20.0,154.75,2
-226.75,-614.0,425.75,-618.25,-1012.5,717.75,-244.5,-706.75,2
-654.5,-766.0,479.5,-1010.25,-1072.25,709.25,-528.0,-786.0,2
-1223.5,-565.75,420.0,-1348.75,-1542.0,355.75,-596.0,-851.25,2
-1078.5,-360.25,552.0,-1653.75,-2107.5,216.0,192.25,-729.75,2
15.75,-80.0,646.5,-1597.5,-2002.5,-257.75,370.0,-496.0,2
1251.25,-303.5,802.75,736.0,-935.75,-239.0,294.75,-151.75,2
1361.0,-519.5,666.75,1162.75,-1004.5,-515.75,471.75,277.5,2
1495.25,-125.5,402.5,1017.75,-1329.75,-431.25,298.5,254.75,2
591.75,-321.5,444.5,2108.75,-1585.75,-116.0,119.0,340.5,2
-374.75,-180.25,345.75,1953.5,-2406.5,-154.25,-2.0,352.25,2
-1019.0,-144.75,202.75,2104.25,-1848.75,253.0,50.75,299.5,2
-1448.0,-88.75,63.5,1846.75,-1942.25,236.5,128.5,345.0,2
-1512.75,-14.5,7.25,343.75,-1832.0,223.25,339.25,283.75,2
-1237.5,-10.0,-42.0,-453.75,-1960.5,257.25,478.75,234.0,2
-996.25,142.25,-141.25,-687.5,-2093.25,106.25,524.5,140.25,2
-484.5,77.75,9.5,18.0,-1632.5,-277.25,920.25,-11.75,2
10.5,109.5,110.0,731.25,-918.25,-398.0,1152.0,-117.5,2
-469.5,104.0,82.0,-201.75,-505.5,-196.75,1071.0,-159.25,2
-286.75,108.75,-28.25,-817.75,-345.25,-380.75,1046.75,-260.25,2
297.25,16.75,-125.75,-700.0,-139.25,-598.0,1015.25,-171.25,2
865.75,28.0,-64.0,-844.5,-344.5,-497.0,1014.25,-77.25,2
1174.75,43.0,30.25,-174.5,40.0,-279.25,986.75,46.75,2
823.0,35.75,94.0,1087.5,22.0,-584.75,1074.5,147.0,2
584.75,45.25,89.75,977.25,99.0,-869.5,1389.25,205.25,2
344.25,4.5,4.25,973.25,133.25,-472.75,1236.5,270.0,2
288.5,53.5,-79.0,832.0,-36.75,-47.0,437.75,298.5,2
96.5,116.75,-103.25,475.0,-172.25,168.5,52.25,398.25,2
-558.75,167.75,16.5,67.5,-53.5,667.0,525.25,400.75,2
-634.75,99.75,98.0,-350.5,402.0,1104.75,-40.0,534.0,2
682.75,110.0,56.75,-694.25,642.25,923.5,-890.75,633.25,2
1024.0,93.75,-23.5,-239.75,1209.5,918.0,-1083.5,699.25,2
1162.5,-52.0,121.75,-24.75,2069.5,1002.5,-1169.25,816.75,2
1139.0,-126.25,576.0,-79.25,2142.0,1183.25,-984.75,960.0,2
476.5,-166.5,733.5,-175.5,2024.0,1270.25,52.5,1159.25,2
-104.25,-212.25,743.0,-591.0,1975.0,1151.5,279.25,1297.0,2
-400.5,-381.5,707.25,-555.25,2395.25,1172.25,-945.0,1290.5,2
-436.5,-556.75,803.5,-575.5,2283.25,1090.0,-1274.25,1295.25,2
-270.0,-643.25,841.75,-621.0,1980.25,982.25,-689.75,1368.0,2
-175.5,-650.0,758.75,-368.75,2008.0,969.0,-294.5,1355.5,2
608.25,-628.5,634.0,135.75,2183.0,969.75,336.75,1262.0,2
966.5,-725.5,638.25,995.75,2324.25,964.25,713.5,1116.0,2
1047.75,-710.75,914.5,909.25,2102.75,924.5,662.25,976.5,2
681.0,-666.25,1126.75,904.75,2256.75,988.5,558.75,755.25,2
791.25,-657.5,1293.5,771.5,2122.75,868.0,691.5,507.25,2
1325.75,-553.75,692.25,20.75,2087.75,750.25,543.75,255.25,2
1448.75,-664.75,-333.0,-1083.5,2426.5,643.0,680.0,-183.0,2
798.25,-895.75,-926.25,-1169.75,2458.5,-320.75,1256.25,-408.5,2
-80.5,-661.0,-1067.0,-1063.5,829.75,-833.0,1120.5,-536.0,2
-327.5,945.5,-1068.0,-471.5,626.75,1227.5,1134.5,1471.0,2
-871.5,876.0,-1010.0,1118.75,569.25,1360.5,1099.75,1368.75,2
-1288.25,873.25,-958.25,1052.0,311.25,1508.0,1179.25,1227.75,2
-1366.5,959.0,-883.75,854.25,96.0,1551.75,1035.75,1164.75,2
-1322.0,975.75,-939.75,854.25,159.75,1568.25,-1037.0,1013.5,2
-1324.25,941.5,-1126.0,940.5,210.0,1535.5,-1101.5,909.25,2
-25.25,895.5,549.0,992.5,278.0,1203.5,-1079.25,829.5,2
483.0,889.25,95.25,1030.75,267.0,770.5,-1076.25,625.0,2
639.25,916.25,-42.0,946.0,11.0,-404.5,-1181.25,262.5,2
748.75,-40.75,306.25,855.5,-130.25,758.0,-1108.0,455.75,2
736.0,565.25,634.5,938.0,308.0,-712.75,-1163.0,-1680.0,2
705.25,-1089.0,685.25,1019.0,820.0,-948.75,-1777.25,-909.5,2
603.5,-865.25,759.25,1019.5,226.75,-1298.25,-2072.25,-1360.0,2
470.0,-1160.25,1122.25,920.0,953.25,-1479.0,-2064.25,-1593.5,2
719.25,-1036.75,1424.75,1091.75,1144.25,-1254.5,-1388.0,-2054.75,2
1043.75,-958.75,1624.5,1109.75,1462.25,-1178.0,-1002.75,-1626.25,2
931.0,-1049.75,1826.0,1065.0,1263.0,-1143.0,-1083.5,-1586.0,2
995.5,-1022.5,1872.0,894.0,1212.75,-945.5,-827.0,-1440.0,2
906.5,-1034.25,1931.5,798.0,1335.5,-844.0,-551.75,-1030.0,2
514.5,-1002.75,1887.25,60.0,1462.5,-698.25,-180.25,-699.0,2
845.25,-919.5,969.25,-370.75,1444.5,-670.5,-321.75,-391.0,2
867.5,-866.25,118.5,-826.0,1140.75,-844.25,-596.25,-1006.0,2
1210.25,-805.75,-302.75,-1248.75,1261.0,-803.25,-394.25,-752.75,2
826.25,-906.75,-1102.0,-1210.5,1286.75,-710.0,-316.25,-595.75,2
1172.5,-674.0,-1423.5,-1559.75,486.0,-925.25,71.25,-639.0,2
1415.75,-501.75,-1548.75,-1518.75,755.5,-831.0,279.75,-496.0,2
1189.5,-856.25,-1357.0,-1038.5,2006.25,-639.0,310.5,-908.5,2
596.25,-1185.75,-1193.25,-548.25,2621.5,-476.25,275.0,-943.75,2
-134.25,-1299.25,-1126.75,-96.5,2400.75,-461.0,407.5,-1137.25,2
-412.0,-1224.25,-1097.5,-224.75,2063.5,-589.25,598.5,-1139.5,2
-724.75,-1302.75,-1034.75,-222.75,2282.75,-514.0,629.75,-1283.5,2
-664.5,-1503.0,-990.25,-449.75,1874.75,-715.25,194.75,-1339.25,2
-512.5,-1388.5,-465.0,-595.25,1805.75,-891.25,38.25,-1359.5,2
-335.0,-1484.25,-313.25,-676.75,1333.5,-949.25,437.25,-1464.75,2
-340.25,-1252.75,-628.75,-755.0,1106.25,-931.75,565.5,-1228.25,2
-222.25,-1308.75,-536.5,-702.0,1156.5,-996.25,708.25,-1063.0,2
-56.25,-1035.75,-1046.5,-846.25,996.0,-994.25,487.25,-646.0,2
101.0,-865.75,-1003.25,-833.25,998.5,-1006.0,319.0,-473.0,2
207.75,-665.0,-1116.0,-908.5,931.25,-1007.25,165.5,-44.25,2
271.75,-491.75,-1059.25,-921.5,1078.75,-1011.0,147.5,151.5,2
491.25,-318.25,-1021.5,-1025.75,1355.0,-977.75,292.0,464.5,2
507.25,119.75,-254.5,-1078.5,1418.75,-869.0,395.0,460.25,2
467.75,-79.75,100.75,-1164.75,1203.75,-885.0,560.75,505.5,2
256.75,-625.75,-69.0,-1151.5,816.75,-875.0,678.5,310.0,2
102.0,-1046.25,-2.75,-1252.75,-35.5,-882.5,894.5,153.25,2
33.5,-1073.25,25.75,-1279.5,-372.75,-865.5,882.25,223.75,2
58.0,-1003.75,-135.0,-1179.0,-1048.0,-874.5,654.75,64.75,2
151.75,-491.0,-1251.5,-1185.0,-1053.0,-826.0,538.75,-0.5,2
132.5,-67.75,-1908.25,-1049.25,-1018.0,-803.25,970.5,-25.25,2
363.0,438.75,-2049.5,-1119.5,-1274.75,-739.5,1038.75,74.0,2
566.5,940.0,-1592.75,-1114.75,-1302.75,-688.75,667.5,187.25,2
503.25,1334.0,-485.0,-1387.0,-1409.75,-709.75,649.75,203.25,2
296.0,1823.5,-79.75,-1550.5,-1107.5,-728.0,720.75,187.5,2
-34.0,1970.0,-44.5,-1522.5,-1031.25,-761.0,1252.25,431.0,2
-438.25,1889.25,-52.25,-1562.0,-1304.75,-839.5,1489.75,592.25,2
-322.25,1840.25,-163.5,-1579.0,-1765.75,-1008.0,1147.0,822.25,2
-359.75,1873.25,-427.25,-1483.5,-1894.75,-1172.5,1074.75,1070.75,2
-507.25,1711.25,-664.0,-1364.75,-1940.25,-1231.25,837.5,1059.5,2
-517.75,1454.5,-1613.5,-1208.5,-1969.0,-1162.5,380.75,1092.75,2
-583.5,1275.5,-2344.25,-1050.75,-2103.75,-1214.25,336.75,1109.75,2
-691.75,1184.0,-2181.75,-940.25,-2276.0,-1105.25,493.0,1068.0,2
-671.75,1004.75,-1749.75,-830.0,-1949.75,-955.75,506.0,1143.75,2
-864.75,712.0,-340.25,-854.75,-1648.75,-861.25,331.0,1178.5,2
-1070.25,436.25,252.5,-822.25,-1341.0,-688.5,134.25,1141.0,2
-1012.0,255.5,304.5,-787.75,-1322.25,-533.75,82.25,1072.75,2
-794.0,90.25,507.25,-636.75,-1434.0,-301.0,-173.0,860.5,2
-550.75,-15.25,-95.0,-416.5,-1710.25,-248.0,-343.25,682.5,2
-521.25,-23.25,-503.75,-197.0,-1956.25,-210.75,-117.25,421.5,2
-353.5,51.25,-954.25,34.25,-1972.75,-140.25,123.25,166.5,2
-259.5,130.0,-816.75,191.75,-1891.5,-43.75,133.75,107.25,2
-469.0,88.0,-731.0,383.75,-1744.0,46.0,-25.0,139.0,2
-678.75,36.5,-945.75,443.25,-1684.0,60.75,-14.0,203.25,2
-932.75,-44.75,-1457.75,459.25,-1637.0,63.25,-204.25,305.0,2
-584.5,-65.75,-1372.25,399.5,-1647.75,37.5,-620.5,460.75,2
60.75,-85.0,-754.5,370.75,-1648.5,32.0,-629.0,516.25,2
533.0,-122.75,-160.0,333.25,-1737.25,-33.75,-891.25,570.75,2
503.25,-150.25,340.25,300.25,-1444.25,103.25,-1045.75,638.5,2
348.0,-169.0,573.25,310.0,-1052.0,275.0,-879.5,606.5,2
454.75,-180.5,224.5,350.0,-685.0,291.75,-706.25,588.75,2
435.5,-298.25,-208.25,351.5,-291.75,399.5,-490.5,661.25,2
-66.25,-599.5,-39.25,421.0,-5.75,542.0,-649.25,878.25,2
-884.0,-721.75,5.5,705.0,34.75,783.5,-766.25,943.75,2
-1137.0,-654.5,89.25,895.0,64.75,699.25,-950.75,336.75,2
-662.5,-582.5,159.0,881.5,220.25,602.5,-1036.0,-75.75,2
-425.75,-520.75,-78.25,798.0,219.5,638.75,-997.75,39.75,2
-353.5,-525.25,-156.5,725.5,239.75,578.75,-1219.75,378.5,2
298.25,-636.25,963.0,576.0,183.0,522.25,-1151.0,378.0,2
251.25,-441.0,1832.5,627.75,-17.75,545.5,-781.5,279.75,2
229.25,-292.25,1451.25,498.0,-34.25,398.75,-647.5,335.75,2
407.5,-314.5,1810.5,281.75,65.75,112.75,-552.75,426.75,2
482.25,-272.5,1706.75,171.25,290.25,-41.5,-400.5,305.25,2
951.0,-255.25,1540.5,59.5,580.25,-130.0,-210.5,105.5,2
923.5,-109.5,1251.0,111.25,665.5,-197.0,-62.25,-129.75,2
627.5,-38.75,1193.75,56.75,568.5,-250.75,-83.5,-229.0,2
248.0,118.75,827.5,130.75,-2.0,-227.25,-18.75,-257.25,2
132.0,331.0,583.25,164.25,89.75,-148.0,39.5,-123.25,2
95.25,424.5,347.0,203.5,720.25,-80.0,-70.5,42.0,2
162.25,456.0,-721.5,198.0,865.0,37.5,-297.0,133.75,2
50.75,410.75,-1975.5,169.75,661.5,192.5,-665.5,302.0,2
-101.5,375.0,-2116.25,191.5,888.25,333.5,-793.0,453.25,2
-10.75,329.5,-1625.25,164.25,782.75,382.75,-915.25,332.5,2
-37.25,301.75,-1248.5,103.25,370.5,423.25,-1122.75,149.75,2
73.75,276.25,-996.0,20.25,13.75,414.75,-1281.5,14.0,2
2.25,325.5,-1035.5,63.25,-185.75,405.25,-372.0,-103.75,2
-26.25,326.0,-218.25,68.0,-175.5,467.25,259.5,-140.25,2
-181.5,342.25,1068.0,75.25,-100.75,493.75,403.25,-233.25,2
-179.75,379.0,1144.5,70.0,39.25,543.75,674.5,-299.5,2
35.75,363.0,1100.75,47.75,313.0,602.75,527.0,-415.75,2
116.0,345.75,827.0,55.25,711.75,637.5,677.25,-442.75,2
217.5,297.5,564.25,78.0,899.5,703.0,780.75,-454.25,2
97.25,279.5,237.5,143.5,835.75,801.0,1237.75,-455.25,2
-156.25,230.25,299.0,93.75,844.25,864.75,1049.0,-313.75,2
-277.75,232.0,602.0,86.5,1081.25,867.0,851.25,-306.25,2
-136.0,259.25,796.75,150.0,1136.5,896.5,633.25,-318.75,2
-106.25,281.5,601.0,213.0,1109.75,749.5,337.0,-197.75,2
44.25,232.0,455.0,283.0,1269.75,525.0,97.0,-100.0,2
23.75,164.75,170.0,296.75,1262.75,330.5,147.0,-89.0,2
-43.25,162.75,-289.5,300.25,1338.75,45.75,358.75,-62.25,2
95.0,151.25,-486.75,267.5,1680.75,-89.0,648.75,-40.75,2
2.25,158.25,-887.0,280.75,1944.75,-211.75,900.75,-48.75,2
-74.75,96.0,-1227.75,297.25,1721.5,-371.75,688.5,-148.25,2
-209.25,30.0,-1430.5,200.0,1381.25,-494.5,143.5,-310.25,2
-295.0,-69.0,-1346.25,93.25,1130.75,-558.0,-134.5,-635.5,2
-360.75,-133.0,-1214.75,44.75,981.25,-587.5,-498.25,-872.0,2
-300.0,-88.5,-1068.25,60.5,1033.5,-682.5,-549.0,-910.75,2
-232.0,-52.75,-816.25,75.0,1046.25,-793.25,-472.0,-994.75,2
-201.75,-34.25,-543.5,84.75,790.0,-902.25,-809.25,-865.0,2
-249.5,-21.75,-424.5,144.0,612.75,-810.75,-738.5,-647.75,2
-301.0,34.0,-546.25,182.75,995.25,-695.0,-352.75,-574.75,2
-239.5,141.5,-562.5,217.75,1670.25,-611.75,-140.0,-338.75,2
-232.0,193.0,-683.75,220.25,1895.0,-574.75,386.0,71.5,2
-194.0,198.0,919.75,242.75,1985.25,-559.75,1313.75,402.25,2
-189.25,176.25,662.5,262.25,2157.75,-539.0,1968.5,634.75,2
-90.75,106.25,420.0,233.5,1720.75,-588.0,2133.75,723.0,2
-90.75,21.25,293.5,239.75,1127.5,-519.25,2158.75,433.0,2
-147.25,-54.0,642.0,228.25,635.0,-375.5,2175.75,127.5,2
-43.75,-82.5,1007.75,181.25,476.0,-170.5,2184.0,137.25,2
-36.0,-128.0,1149.25,125.0,508.25,98.0,2173.5,14.25,2
-83.0,-163.75,608.0,155.5,480.75,436.0,2026.5,-42.5,2
-115.0,-225.75,137.5,238.25,412.75,661.5,1846.0,-21.75,2
-65.0,-231.25,888.75,236.25,182.25,740.25,1678.0,-70.75,2
25.0,-172.25,1392.75,122.75,32.75,635.75,1059.75,-104.75,2
75.75,-133.25,1973.25,-10.75,-191.25,432.5,513.25,-25.0,2
187.75,-84.0,1604.5,-113.25,-478.0,347.75,412.25,42.0,2
273.0,-45.5,1186.75,-186.5,-719.0,550.25,564.5,155.5,2
256.25,-65.25,857.25,-198.25,-1031.75,908.75,618.0,427.0,2
233.25,-26.0,524.5,-164.5,-1148.5,847.5,516.0,513.5,2
262.5,104.0,487.25,-133.25,-1211.5,518.0,393.0,547.25,2
272.5,-98.25,357.25,-40.25,-1200.75,366.0,-15.25,376.5,2
264.5,-335.0,-202.75,38.5,-1067.5,411.75,-214.0,213.5,2
268.0,-385.0,-552.25,10.25,-824.5,399.5,-75.25,-55.75,2
253.75,-374.0,-870.5,-30.75,-805.5,367.75,104.5,-394.5,2
196.75,-188.0,-911.25,-98.25,-1190.75,370.5,227.5,-357.0,2
161.0,-79.5,-785.5,-434.0,-1947.0,-8.5,383.5,62.0,2
569.25,259.0,-757.25,-830.25,-2378.75,-344.75,383.75,227.75,2
733.75,1013.75,-706.5,-779.0,-1987.75,-264.75,284.25,161.0,2
635.0,1207.0,-1179.75,-626.0,-1030.5,-251.25,122.75,18.75,2
613.25,1211.25,-1270.25,-618.0,-418.75,-351.75,-114.0,-113.0,2
477.0,1156.75,-915.75,-520.75,-38.0,-180.25,-492.0,18.5,2
275.5,935.75,-437.5,-582.25,310.25,-61.5,-651.75,165.5,2
206.0,822.0,134.75,-402.0,553.25,67.75,-901.0,121.5,2
-50.25,594.25,452.75,-94.75,718.5,194.5,-986.75,-8.0,2
-107.5,184.75,690.25,74.5,1128.25,516.5,-1029.75,-145.0,2
42.25,127.25,1174.75,81.5,1441.0,743.0,-1098.5,-74.25,2
343.0,148.0,826.0,105.75,1078.25,802.75,-1184.0,-464.25,2
303.75,343.0,-99.25,339.75,151.5,889.75,-1273.75,-1022.25,2
53.5,100.0,-701.0,791.0,-444.25,1083.0,-1531.5,-1576.75,2
-867.5,-592.0,-659.5,1065.75,-846.0,1371.0,-1761.5,-1452.25,2
-1017.75,-289.75,-263.5,986.0,-1061.0,1118.5,-1547.75,-1035.5,2
-852.0,298.75,-198.0,873.0,-1147.25,840.75,-1397.75,-799.5,2
-909.75,21.0,46.25,801.0,-1012.25,802.5,-1325.0,-452.25,2
-843.5,113.5,-213.75,613.25,-913.75,634.5,-1227.0,66.0,2
-723.25,37.75,-409.75,580.5,-774.25,605.0,-1277.25,258.5,2
-713.75,-1217.0,-393.0,335.5,-734.5,431.5,-1395.25,344.25,2
-328.0,-1194.75,-514.75,45.75,-757.75,277.75,-1635.75,596.0,2
-232.5,-1201.25,260.75,2.75,-755.0,236.5,-1731.5,1017.0,2
35.25,-1081.75,960.5,-13.0,-954.75,183.75,-1804.75,1192.0,2
148.0,-1015.75,974.0,-254.25,-902.75,124.0,-1642.75,1055.25,2
364.75,-843.0,862.75,-503.75,-667.75,30.75,-1469.0,734.5,2
337.5,-781.5,693.0,-469.0,-379.75,52.25,-1539.25,290.0,2
385.25,-145.0,349.75,-562.75,-564.5,-60.5,-1278.0,-1034.5,2
769.5,1664.5,149.75,-742.75,-471.25,-291.5,-743.25,-1183.75,2
815.75,1762.25,212.0,-696.25,-106.5,-254.0,-528.75,-857.0,2
554.75,1402.75,140.0,-303.75,154.0,33.25,-637.25,-878.75,2
-98.0,621.0,460.0,693.0,396.0,345.25,-739.0,-898.25,2
-244.0,262.75,857.5,743.5,126.5,306.25,-522.5,263.0,2
59.75,609.0,237.25,77.5,-502.25,84.25,-289.75,1213.0,2
330.25,598.75,356.5,-304.25,-723.0,-47.0,-205.25,1697.25,2
706.75,-905.5,801.25,-613.0,-676.25,-179.25,-156.75,1479.0,2
-3.5,-1096.5,690.25,483.0,421.75,-85.25,-243.75,1212.75,2
-845.0,-1652.5,1051.5,673.25,259.0,-128.5,-10.75,1199.25,2
-850.25,-1559.0,1039.0,491.5,-51.25,-332.5,338.5,671.0,2
-1018.5,-1440.25,1243.0,641.0,-89.0,-402.0,389.25,-79.0,2
-1486.75,-814.25,1120.25,491.5,-511.0,-432.75,438.0,-452.5,2
-1747.5,-375.0,116.5,404.5,-593.0,-342.0,433.5,-380.25,2
-1146.25,-1153.25,-482.5,245.5,-353.5,-344.75,536.0,-252.0,2
-278.5,-1021.0,-837.5,2.75,-74.25,-346.25,741.25,-102.75,2
63.0,-981.5,-1138.0,-2.5,48.5,-226.5,710.5,309.75,2
483.5,-895.5,-461.0,83.0,-129.0,-128.0,629.25,359.5,2
145.5,-848.0,490.0,262.75,-623.75,-95.5,456.0,271.25,2
78.25,-411.75,307.5,206.5,-898.25,-62.25,-18.75,63.5,2
-115.5,-137.25,-995.25,330.0,-1251.25,32.5,-124.75,-301.5,2
-255.25,-189.75,-982.75,355.5,-1384.5,43.75,-129.75,-1032.0,2
-290.75,490.75,46.75,369.0,-1601.0,-33.5,448.75,-1192.75,2
-411.75,828.25,422.25,372.5,-1626.5,-107.25,519.25,-908.5,2
-431.5,-30.0,397.0,284.0,-1255.75,-143.5,716.0,-755.5,2
-486.5,-1056.5,-603.0,200.0,-141.25,-179.0,822.0,-300.25,2
-455.0,-970.25,-953.25,154.0,984.5,-242.0,874.5,739.25,2
-443.0,-929.0,-790.75,183.25,1178.5,-298.25,992.5,1402.25,2
-251.0,125.25,-624.75,31.25,735.0,-394.5,1010.5,1370.5,2
-32.5,232.5,-674.75,-401.5,297.0,-409.25,1131.5,1387.5,2
218.25,1193.75,-1242.25,-726.25,629.25,-314.25,1154.25,1123.0,2
430.0,1312.75,-575.75,-729.75,421.5,-227.25,1125.0,902.25,2
578.75,1316.25,759.25,-760.0,-585.5,-158.25,843.0,852.25,2
728.0,1319.75,534.5,-936.25,-1003.75,-164.25,600.0,749.5,2
800.75,1314.25,195.25,-955.5,-1166.25,-173.25,550.0,728.25,2
878.25,-441.75,168.0,-911.25,-803.75,-96.0,442.5,-33.0,2
821.75,-635.0,-274.0,-785.5,-651.75,13.0,416.25,-745.0,2
769.75,-698.75,-239.0,-617.75,132.75,125.5,485.25,-627.75,2
797.0,-738.25,-377.5,-539.75,1424.25,238.0,602.5,-538.5,2
766.75,440.0,773.75,-470.75,1974.5,276.25,495.75,-642.75,2
653.75,1136.0,394.0,-391.25,2008.0,329.5,335.75,-421.5,2
563.0,1129.5,-859.0,-298.25,1963.5,439.5,489.75,-352.25,2
443.0,1135.0,47.0,-229.25,1990.5,462.25,489.5,-563.75,2
301.5,1092.5,-370.25,-201.25,2213.0,461.5,568.75,-893.5,2
209.25,999.5,-1119.0,-195.0,2533.25,485.75,757.0,-981.75,2
179.5,175.0,-57.5,-242.75,2673.25,363.5,682.25,-1098.25,2
153.5,-254.25,93.0,-223.75,2313.5,176.0,875.25,-1051.25,2
201.25,-184.5,-210.5,-238.0,1672.0,-21.25,1120.5,-997.75,2
53.5,-137.25,-31.5,624.5,2261.0,196.25,1182.75,-1352.5,2
-326.5,-537.0,-145.25,975.25,2154.25,270.0,1133.75,-1292.0,2
-163.5,48.75,-689.5,744.0,1965.0,-120.0,1251.0,-464.5,2
-166.75,278.0,-926.0,850.0,2038.5,-135.25,1166.75,467.0,2
-233.75,329.5,-946.25,592.5,1196.0,-337.5,1081.0,1341.0,2
-119.5,550.25,-1053.5,404.75,1216.25,-380.25,833.5,1084.25,2
-167.0,446.5,131.5,398.0,567.25,-427.5,561.25,927.75,2
-8.75,593.5,1317.75,53.75,-138.5,-548.75,249.25,821.25,2
41.0,443.0,1483.5,-35.5,173.75,-583.5,120.25,683.5,2
151.25,481.0,1421.25,-306.5,505.25,-634.0,-46.5,522.75,2
71.0,198.5,931.75,63.25,1070.0,-446.75,-169.75,516.5,2
-18.0,110.5,317.5,-90.0,406.25,-503.75,-206.25,991.5,2
163.25,272.0,-31.5,-406.25,107.5,-398.0,-416.75,1215.0,2
90.0,115.5,-314.75,1.0,1081.5,-238.25,-522.0,1538.5,2
-111.0,28.0,493.25,114.0,1208.0,-218.0,-576.0,1768.5,2
-137.0,94.0,-76.0,-31.75,605.25,-122.25,-574.0,1423.75,2
-181.75,180.75,-901.25,73.5,239.5,-0.5,-620.0,1196.0,2
-235.5,238.0,-1248.75,77.25,-411.0,4.5,-672.0,966.25,2
-195.75,273.75,-931.0,43.25,-1385.25,-88.75,-658.25,300.5,2
-50.5,190.0,-1030.0,-53.25,-2322.75,-129.0,-761.75,-301.0,2
72.75,126.0,-1025.25,-76.25,-2059.0,-189.0,-803.75,-570.25,2
36.25,36.75,-919.0,5.25,-1483.0,-169.25,-809.0,-294.25,2
-39.0,-49.5,-180.0,-44.5,-1022.25,-169.25,-810.0,52.75,2
-117.75,-110.0,991.75,-93.75,-593.0,-162.0,-828.0,48.0,2
-90.5,-118.0,1648.0,-231.25,-1024.0,2.75,-879.25,-84.75,2
-22.5,-209.25,1573.5,-312.75,-1639.75,125.5,-679.5,47.0,2
154.0,-236.25,1601.5,-521.0,-2404.25,122.75,-601.75,226.25,2
375.5,-98.25,846.0,-659.25,-2470.25,109.0,-653.0,94.25,2
457.5,70.0,330.0,-492.5,-1837.75,-31.0,-658.75,-83.5,2
348.25,-91.0,189.5,66.5,-551.75,29.5,-795.5,-401.25,2
-50.75,-416.5,216.75,158.75,-352.75,92.0,-727.75,-490.25,2
-62.0,-117.0,533.25,-167.5,-874.25,22.75,-588.75,-347.25,2
-298.25,-211.25,1129.5,526.0,-409.0,349.25,-420.75,-346.25,2
-722.25,-326.5,1598.25,746.25,-717.5,420.75,-142.25,-262.25,2
-511.25,-88.5,1273.0,440.25,-947.75,410.25,-105.5,-531.25,2
-540.75,-388.25,491.0,533.25,-1008.25,455.5,-182.75,-887.25,2
-478.5,-446.75,148.5,411.75,-1547.25,478.5,-538.75,-1264.25,2
-494.25,-583.25,127.0,561.75,-1618.75,518.5,-688.75,-1485.5,2
-576.25,-606.0,107.75,486.0,-2022.25,229.75,-615.0,-1365.25,2
-646.0,-492.0,194.5,463.0,-1871.5,-54.25,-776.5,-1312.75,2
-841.0,-401.75,-516.25,363.0,-2346.0,-339.5,-672.75,-233.25,2
-812.5,-296.75,-1831.75,169.0,-2045.75,-467.5,-425.25,497.75,2
-860.5,-685.25,-1640.25,169.25,-1587.5,-512.0,-139.25,621.5,2
-894.75,-848.75,-743.0,126.75,-1424.25,-425.25,224.5,1146.75,2
-958.25,-886.0,-300.75,168.0,-1518.25,-136.75,580.5,1275.0,2
-918.75,-918.5,-510.5,122.5,-1697.75,131.5,314.25,1051.75,2
-863.5,-967.25,-837.0,149.0,-1440.75,406.75,136.5,902.5,2
-742.75,-1129.75,-1060.75,107.75,-1607.75,571.0,192.5,334.25,2
-653.25,-1174.25,-1333.75,29.0,-1385.75,778.25,-34.75,-58.75,2
-598.0,-1226.5,-962.5,-55.5,-1075.0,825.75,209.25,-6.5,2
-546.5,-1196.0,189.0,-150.25,-945.25,773.0,386.75,-14.75,2
-555.75,-1106.5,253.25,-234.25,-706.0,614.25,470.0,-193.5,2
-402.75,-250.25,423.75,-255.75,-757.0,313.0,709.75,-531.0,2
-207.5,37.5,-1651.75,-131.75,-1015.5,43.5,891.25,-837.25,2
130.0,306.5,-1795.25,-36.75,-944.75,-196.5,972.75,-997.0,2
407.0,1006.0,-797.75,-104.25,-571.25,-436.0,1033.5,-979.5,2
429.75,1085.25,-619.75,-189.5,-220.75,-760.0,1075.75,-1036.75,2
503.25,1075.5,-287.75,-64.25,-62.5,-839.0,956.5,-1303.75,2
881.0,988.5,226.5,-5.0,-14.5,-1011.75,738.5,-1359.25,2
1208.25,443.5,684.25,87.75,-150.0,-1103.75,593.5,-1086.75,2
1090.25,-13.5,859.25,0.0,126.5,-1089.0,357.75,-616.0,2
1059.25,-76.25,1581.5,-404.75,759.0,-1093.75,322.5,-64.75,2
639.75,-147.0,2111.0,-559.0,621.5,-931.75,373.75,563.25,2
-16.5,-368.75,1837.0,-648.5,-116.75,-655.75,382.5,818.0,2
120.5,-355.75,1677.75,-610.25,-119.25,-364.75,405.25,366.25,2
-7.5,-16.25,1203.5,-542.25,78.0,-155.25,381.5,-107.0,2
-315.0,188.5,25.0,-359.25,-257.75,3.25,243.25,-265.5,2
-190.75,881.25,-1364.5,-98.5,-720.25,144.5,69.25,-210.25,2
503.25,1288.25,-458.5,189.5,87.75,292.25,-7.0,-522.0,2
993.75,1205.75,-447.25,822.25,1075.75,259.25,-115.75,-1022.75,2
1000.75,1271.5,-380.25,914.5,927.75,62.0,-156.0,-1025.25,2
1027.25,1297.5,-803.5,598.75,1116.25,-38.75,-306.75,-793.0,2
925.0,1258.25,-1125.5,73.0,1244.5,-130.25,-443.5,-342.75,2
425.5,992.5,-593.75,-400.25,1433.25,-162.0,-429.75,-89.25,2
236.0,779.5,-550.5,-611.5,1313.25,-168.75,-262.0,62.5,2
-590.75,406.25,-35.0,-743.75,1190.25,-190.0,31.5,526.0,2
-991.25,15.25,-139.0,-693.5,1307.0,-152.5,148.75,989.75,2
-981.75,86.5,-2236.75,-531.75,1544.5,-14.75,177.75,1210.0,2
-893.5,-92.5,-2364.5,-392.75,1611.0,149.0,176.75,1501.0,2
64.25,-686.25,-2199.25,-380.5,1388.75,236.0,129.75,1733.25,2
1279.5,-865.25,-232.25,-241.25,1261.0,272.5,-12.75,1508.5,2
1408.5,-694.0,1545.0,-165.0,1246.5,346.0,-252.5,1000.5,2
1414.5,-724.75,1928.75,-140.25,1599.0,455.75,-456.25,489.0,2
932.75,-971.25,2310.5,-64.25,1609.0,443.0,-487.5,89.0,2
901.0,-900.0,1428.75,151.5,1630.25,420.75,-498.75,-306.75,2
1144.25,-174.25,1502.5,215.25,1440.25,425.75,-510.75,-144.25,2
1331.25,320.25,189.5,-99.5,1070.25,359.5,-456.0,110.75,2
1602.75,834.75,-352.25,-454.25,670.5,202.75,-370.25,563.25,2
1100.0,906.0,-1525.0,-712.25,235.5,-56.25,-272.75,1204.75,2
-64.5,763.75,-2102.5,-799.25,342.25,-235.25,-152.75,1319.5,2
-486.75,493.25,-1771.5,-518.75,647.0,231.0,-246.75,1337.75,2
-672.25,-170.25,108.25,17.25,460.0,859.0,-433.5,1024.5,2
592.75,-577.75,1161.5,-453.25,212.25,444.0,-182.5,1272.5,2
1474.25,-432.5,1482.0,-669.0,397.0,482.75,-242.5,1549.5,2
1529.25,-619.25,1836.5,-202.5,-171.0,557.5,-470.0,1324.5,2
1462.25,-648.5,411.25,13.25,-977.5,418.25,-523.25,885.25,2
1384.5,-884.75,-550.5,1298.75,-445.25,866.0,-452.5,241.25,2
1296.75,-704.5,-369.5,1517.0,-307.75,607.5,-358.0,-43.25,2
841.75,-282.25,277.75,1624.75,-260.75,607.25,-507.75,-635.0,2
-170.0,-395.25,353.75,1784.25,-627.75,471.5,-527.25,-763.5,2
-1091.5,124.75,10.5,1181.75,-826.5,318.25,-596.0,-980.0,2
-1201.25,376.75,423.0,785.25,-415.25,250.5,-285.25,-1191.75,2
-1054.5,587.0,1178.75,-236.0,-888.5,23.5,69.0,-734.25,2
-693.0,856.75,1929.0,-824.5,-1333.25,76.5,200.25,-498.75,2
-436.0,1023.25,981.25,-1173.75,-1778.25,-41.5,475.5,-291.25,2
-478.0,800.0,-168.75,-1345.0,-1805.5,-84.5,725.5,-487.75,2
-482.5,249.0,-854.75,-1213.5,-1628.25,-192.5,693.25,-533.75,2
-637.0,70.75,-830.5,-983.0,-1031.75,-195.25,532.5,-441.0,2
-907.0,-257.5,864.25,-638.0,-674.75,-390.0,614.0,-75.0,2
-915.25,9.25,-69.75,-450.25,-901.5,-700.0,725.75,137.75,2
-957.0,-53.0,-679.0,-306.25,-878.75,-860.0,915.25,136.0,2
-1029.0,-165.25,249.25,-263.75,-953.75,-869.0,908.5,15.0,2
-1021.5,-1.75,1776.0,-215.25,-768.0,-691.0,756.25,-159.5,2
-1078.5,-26.25,1752.0,-47.5,-361.5,-508.0,834.75,-213.5,2
-1324.5,-242.0,1826.25,194.0,344.0,-301.5,834.5,-213.0,2
-1597.0,-445.75,2318.5,181.25,1028.25,-65.25,732.75,-115.25,2
-1718.75,-342.75,1101.25,49.0,876.0,202.5,522.5,-150.0,2
-1748.75,-358.25,-1250.5,-146.25,298.0,479.5,429.75,-248.25,2
-1816.0,-301.75,-1405.5,-426.5,-359.75,493.0,478.25,-295.5,2
-1865.75,-206.75,-1625.25,-509.5,-550.5,433.75,366.75,-394.25,2
-1697.75,-170.25,-1895.75,-529.0,-633.0,437.0,373.25,-393.5,2
-1331.75,39.0,-1884.75,-276.25,-485.25,534.75,354.25,-284.0,2
-1034.75,46.75,-6.5,-23.0,-181.5,622.25,335.0,-215.5,2
-714.25,-109.0,183.75,317.0,471.5,719.75,243.75,-167.25,2
-443.5,-168.25,-103.0,587.75,791.75,877.0,83.5,-112.75,2
-193.5,-181.0,326.25,722.5,624.75,948.0,43.25,-18.5,2
120.0,-204.5,558.25,732.0,155.5,968.5,29.0,36.75,2
354.5,-235.5,429.5,603.25,-199.0,1008.75,-31.0,102.5,2
225.5,-539.0,314.75,664.0,-16.0,1297.5,-276.0,238.25,2
-250.0,-808.25,325.0,1069.5,13.25,1480.75,-757.25,-299.0,2
-502.25,-767.0,300.5,1113.0,485.5,1487.75,-1125.25,-721.75,2
-551.0,-658.5,110.5,933.25,980.5,1555.25,-998.0,-740.0,2
-572.5,-557.0,128.5,838.25,973.5,1575.5,-737.25,-847.5,2
-607.75,-445.5,703.0,674.25,842.0,1357.0,-609.75,-890.0,2
-523.0,-420.5,1607.5,539.25,600.5,1155.75,-339.0,-729.25,2
-1214.75,-323.75,1214.0,440.0,616.75,865.5,-267.25,-817.75,2
-1060.75,-299.25,812.0,277.0,490.25,699.25,-236.0,-601.75,2
-941.0,-204.0,1133.25,276.0,306.25,596.75,-424.25,-654.0,2
-509.0,-144.75,971.5,88.25,157.25,525.25,-399.25,-547.75,2
469.25,-164.0,1293.75,-101.75,166.5,454.75,-164.75,-578.5,2
1208.5,-80.0,1105.75,-353.75,335.75,379.0,-43.5,-492.75,2
1571.75,-58.5,1183.0,-450.75,310.0,193.0,-5.0,-381.0,2
1377.25,-20.0,1319.75,-453.25,359.0,-30.5,-165.5,-333.5,2
1332.25,22.0,1601.5,-446.0,502.25,-132.25,-226.25,-245.5,2
1178.25,108.75,1646.0,-419.75,599.75,-224.75,151.5,-223.0,2
817.75,191.5,1488.5,-274.5,525.25,-328.25,534.75,-94.25,2
506.0,312.25,1159.75,-206.0,131.0,-359.25,610.75,-52.75,2
344.0,476.0,279.0,-487.25,-248.75,-348.75,355.75,50.75,2
183.75,609.75,-535.5,-816.75,-541.75,-414.25,-162.25,44.0,2
178.75,643.0,-242.75,-1048.0,-448.25,-482.0,-314.75,142.5,2
328.5,605.0,-244.5,-1095.75,129.0,-611.0,-316.5,309.75,2
342.0,527.75,-244.25,-1026.75,333.75,-759.75,-15.75,386.5,2
331.25,417.75,-603.5,-815.0,314.25,-813.0,425.25,408.5,2
541.0,377.0,-1568.75,-595.25,259.25,-754.75,392.75,343.5,2
806.5,315.5,-2237.25,-498.5,242.75,-625.0,203.75,228.75,2
788.25,292.0,-1218.25,-340.0,532.25,-492.75,2.0,129.25,2
1074.75,310.0,-915.5,-100.0,733.0,-434.5,-61.25,199.75,2
1127.0,371.75,-2167.0,2.0,627.5,-484.25,-211.5,247.75,2
1311.25,461.25,-1956.75,29.25,416.0,-483.5,-623.25,399.75,2
1380.25,489.5,-894.25,61.25,50.0,-311.5,-751.5,646.5,2
1310.25,430.25,-96.0,12.25,-646.25,-115.0,-449.0,764.75,2
1235.25,390.75,504.25,26.25,-616.75,-69.75,-161.25,855.75,2
892.25,361.25,285.25,42.0,-420.75,-197.75,363.25,1129.75,2
422.25,312.25,178.75,74.5,425.0,-342.75,657.75,1258.75,2
-232.5,317.0,195.5,297.0,579.5,-353.0,-18.0,1173.75,2
-720.0,270.25,-58.75,844.0,837.5,-445.5,-327.5,1108.0,2
-1032.0,230.0,-32.0,1187.5,757.75,-605.0,-522.0,1037.25,2
-1278.5,215.5,-323.75,1339.5,199.25,-694.0,310.75,974.25,2
-1157.5,146.75,-961.0,1491.0,-62.75,-775.5,1283.5,855.0,2
-1065.25,97.0,-1650.25,827.5,8.75,-787.0,977.0,753.75,2
-718.0,49.75,-1572.75,138.75,-91.75,-738.75,405.0,499.5,2
-605.25,-23.5,-516.5,1043.5,-276.75,-685.75,-316.25,207.5,2
-1020.25,-87.0,420.75,1710.0,-193.5,-627.25,-808.25,-67.25,2
-1512.0,-141.25,1343.25,1220.5,-307.75,-663.5,-825.5,-129.25,2
-1620.0,-116.25,1545.25,-222.75,-314.5,-735.0,-795.5,68.0,2
-1626.25,-84.0,1387.25,-171.0,-282.75,-777.25,-498.5,13.75,2
-1410.0,-121.25,1252.25,-239.0,-284.75,-728.75,641.5,-11.0,2
-1232.0,-201.25,1194.25,-370.5,-222.75,-725.75,1186.5,-27.25,2
-292.25,-290.75,-82.75,-503.0,-419.25,-863.75,832.25,12.5,2
1029.5,-153.25,-759.25,-938.25,-788.75,-1275.25,748.75,362.75,2
1420.5,174.75,-738.75,-1008.75,-696.0,-1281.75,167.75,317.5,2
1120.5,104.25,-484.0,-264.5,-402.0,-1130.25,290.75,-106.25,2
1147.5,152.75,-320.75,1037.25,-234.5,-1219.75,1019.5,-277.25,2
1287.75,419.25,-193.25,1072.25,38.0,-1081.5,964.75,-346.0,2
1030.75,536.25,-189.5,1186.5,337.0,-688.0,423.25,-355.75,2
-90.0,617.0,-314.0,1262.75,759.0,-424.75,-41.25,-591.0,2
-774.5,566.0,-320.0,1432.5,1232.0,-243.5,-478.0,-718.75,2
-317.0,468.5,-151.5,1420.75,1629.75,-185.75,62.25,-720.25,2
594.25,333.5,-96.25,1447.25,2045.75,94.5,475.0,-350.0,2
1553.25,68.0,-156.0,1368.25,2325.75,368.0,85.5,-12.25,2
2232.25,-75.0,-185.75,1454.0,2236.0,549.25,761.25,-329.0,2
1142.25,-181.75,93.25,1809.5,1322.25,769.75,1514.75,-893.0,2
-1467.75,-684.5,754.75,1965.75,330.5,1152.25,585.5,-1050.5,2
-2617.5,-751.75,1367.25,1735.75,-330.25,1247.5,-159.75,-1052.0,2
-2872.5,-552.25,1193.0,1489.25,-1089.5,1072.0,-632.25,-1100.0,2
-2869.0,-517.5,1451.0,1455.25,-1491.5,858.25,-795.5,-1071.5,2
-2560.0,-302.75,1803.0,1327.25,-1235.0,544.5,-833.25,-891.0,2
-1860.0,-235.5,2028.5,1272.25,-552.5,506.25,-513.75,-606.25,2
-1135.5,-223.75,2157.25,716.25,-476.75,226.25,-64.25,-357.25,2
150.25,11.75,1976.75,134.0,-382.75,94.5,-151.5,-149.25,2
1306.0,-22.0,1436.75,-376.75,-215.0,-55.75,47.75,103.5,2
1271.25,34.5,189.75,-925.75,-145.5,-177.75,268.0,317.75,2
1038.5,-59.0,-624.25,-1334.25,68.5,-159.5,573.25,621.75,2
856.0,42.5,-1488.25,-1448.25,113.75,-165.0,1085.5,745.5,2
639.5,-24.0,-1961.75,-1280.5,485.25,-140.5,1257.5,812.5,2
775.25,-148.25,-664.75,-1241.25,407.0,-164.5,959.0,1052.25,2
1197.25,-268.75,-30.75,-1353.0,335.25,-96.25,465.5,1351.5,2
1244.25,-478.0,-91.75,-1364.25,251.25,50.75,174.0,1487.25,2
590.0,-500.25,700.5,-1306.5,-0.5,211.0,11.0,1614.0,2
-159.75,-517.25,961.25,-1193.25,-15.25,356.25,79.0,1725.5,2
-1074.75,-525.5,-491.5,-813.5,-223.0,500.5,292.25,1492.0,2
-1409.25,-420.5,100.5,-715.25,-103.25,602.5,403.25,890.75,2
-1657.25,-339.25,366.25,-504.75,279.5,849.75,394.75,-169.5,2
-1839.5,-372.25,-72.75,-332.75,336.75,1000.25,280.5,-1243.25,2
-1745.0,-299.75,678.0,-176.5,634.25,920.5,372.25,-1869.75,2
-1188.75,-318.5,-123.75,127.5,645.75,865.75,429.25,-1862.25,2
-548.0,-241.25,-890.0,210.0,214.25,730.0,349.5,-1869.5,2
-239.25,-60.5,-878.75,272.75,198.75,522.5,112.75,-1898.5,2
-296.75,21.75,1136.75,520.75,573.75,491.75,-344.75,-1900.75,2
-403.25,101.5,1148.0,692.25,1035.0,635.5,-858.75,-1493.25,2
-459.25,79.5,-491.25,492.25,1070.25,797.0,-1203.0,-1565.25,2
-647.75,83.75,-924.5,-112.75,506.0,819.5,-1028.75,-1591.75,2
-580.25,91.75,-174.5,-917.5,-25.5,844.0,-423.75,-1502.5,2
-484.25,70.75,714.25,-870.75,-409.25,832.25,-223.0,-1187.25,2
-356.5,50.5,576.75,-427.5,-662.25,762.5,-329.5,-760.25,2
-114.25,38.75,379.5,-382.75,-422.25,771.0,-81.25,-65.5,2
145.75,126.75,-171.5,-560.0,-416.75,662.0,-148.0,502.5,2
568.25,290.5,-28.75,-868.0,-267.0,561.0,-280.5,1081.0,2
972.75,342.75,-301.25,-1842.0,788.0,638.25,-332.5,1637.25,2
956.25,267.0,-751.75,-2117.0,1607.75,797.75,-637.25,1835.75,2
635.0,222.75,-980.25,-2463.75,1303.25,840.5,-647.5,2022.75,2
159.25,191.75,-1047.75,-2602.5,813.0,715.75,-502.5,2018.5,2
-247.25,190.25,-1120.5,-2154.25,-557.25,525.25,-403.75,2007.75,2
-228.5,219.0,-31.5,-1909.25,-1138.75,372.25,-533.25,1894.25,2
-302.25,-7.0,938.0,-400.75,-463.25,248.0,-948.25,1867.5,2
-158.75,-142.5,1013.0,1485.5,-212.25,27.25,-899.0,1900.25,2
-187.0,-54.0,1042.5,1458.25,335.5,-144.5,-601.75,1919.5,2
-660.5,-14.0,415.75,1371.75,499.25,-360.0,-408.5,1957.25,2
-1332.75,-95.75,-914.25,1506.25,460.5,-569.25,-164.0,1907.75,2
-2129.75,-253.25,-876.5,1481.25,488.5,-614.25,52.75,1971.75,2
-1338.25,-97.75,16.25,723.5,-590.0,-776.5,198.5,2327.5,2
-79.0,453.75,551.0,-20.25,-781.0,-781.75,511.5,1841.25,2
694.5,516.25,356.0,-1441.5,-917.0,-568.5,627.25,582.0,2
1268.25,381.25,391.25,-1772.25,-825.75,-558.75,461.75,459.25,2
2048.25,409.25,363.25,65.0,-491.0,-665.0,239.75,420.0,2
2410.75,427.75,-2.25,278.5,7.75,-454.0,-42.5,361.5,2
1876.25,349.75,142.0,303.0,351.75,-399.5,-88.5,390.5,2
1140.5,391.75,113.25,565.75,816.5,-159.5,5.75,327.75,2
641.5,367.5,-470.75,613.75,1113.75,-88.25,73.75,270.5,2
706.5,377.75,-755.25,-1310.0,879.0,-82.0,303.25,60.5,2
-167.5,340.75,-694.25,-741.25,551.0,-14.25,826.5,-155.5,2
-1064.25,354.0,-661.75,-879.75,332.75,-157.0,982.25,-352.75,2
-1468.5,218.0,-516.25,-505.5,297.5,-246.75,573.75,-587.0,2
-1557.5,68.75,301.25,-649.25,643.25,-399.75,-208.5,-831.75,2
-1232.5,-130.25,678.75,-769.25,780.25,-423.0,-358.5,-325.0,2
-411.25,-239.25,694.5,-736.25,731.5,-400.75,-298.0,288.5,2
607.75,-321.25,648.5,-201.5,233.75,-288.25,-290.75,660.25,2
787.0,-289.5,622.0,538.75,-637.5,-187.0,123.75,743.5,2
822.5,-160.5,611.0,664.25,-490.75,-135.75,-67.0,626.75,2
805.5,-74.0,457.25,-311.0,-226.5,-177.5,-403.25,481.0,2
912.5,94.75,427.0,-220.75,-732.75,-317.0,-500.75,393.0,2
904.75,130.75,699.5,1620.75,-565.0,-390.5,-920.25,323.25,2
353.5,141.75,849.75,1869.0,-295.75,-407.0,-1345.25,281.75,2
256.5,119.0,675.75,1943.0,-71.5,-241.25,-1351.75,168.5,2
-171.0,148.25,361.25,2581.25,93.75,-129.0,-945.5,140.0,2
-283.5,189.0,190.75,2534.75,162.0,-56.0,-669.0,-311.75,2
-561.75,118.75,-66.0,2365.75,494.25,-133.0,-423.25,-1354.75,2
-602.0,-38.5,-412.25,2162.75,274.75,-347.25,6.25,-1774.75,2
-674.75,-186.5,-643.25,2515.75,-40.0,-467.25,487.75,-1733.25,2
-720.5,-240.75,-874.75,2055.75,92.25,-365.5,807.25,-1726.0,2
-579.5,-196.75,-996.0,1373.5,274.5,-162.25,1215.75,-1661.75,2
-456.5,-187.75,-861.5,821.5,559.5,-201.0,1486.0,-1576.25,2
-329.75,-362.75,-552.25,447.5,679.0,-116.25,1551.75,-1425.5,2
-500.0,-517.5,-467.5,594.75,531.5,209.75,1524.25,-1184.75,2
-660.5,-646.5,-674.25,290.75,395.25,485.0,1390.75,-1102.0,2
-1014.25,-588.0,-560.25,-251.75,-81.75,624.0,1108.5,-1069.0,2
-1161.25,-471.75,-478.5,-286.0,-260.75,767.5,844.0,-1105.5,2
-1197.75,-444.0,-480.25,632.75,125.75,856.25,1282.5,-1141.5,2
-1306.5,-435.5,-478.0,653.5,527.0,661.5,1168.25,-1101.0,2
-1574.5,-433.0,-503.0,-145.5,701.5,410.25,-4.5,-1015.75,2
-1711.75,-366.25,-303.0,-909.75,793.75,178.5,-112.0,-450.25,2
-1395.75,-298.5,4.75,-1732.0,811.5,-55.25,121.5,303.75,2
-839.25,-296.0,358.0,-1579.5,1200.5,-268.25,442.25,582.5,2
-617.5,-287.5,590.25,-871.75,1112.75,-585.25,1431.5,150.5,2
-70.5,-252.75,705.5,-384.75,593.0,-856.5,1309.5,180.0,2
223.75,-252.5,435.5,-76.5,327.75,-885.25,985.75,374.5,2
256.75,-188.5,167.25,-397.0,235.5,-969.75,866.75,487.75,2
505.25,-73.5,126.75,437.25,333.0,-1041.0,-206.0,725.5,2
200.75,-32.5,43.5,1028.0,811.75,-975.25,-894.25,837.0,2
-997.5,67.5,88.0,1001.75,1141.25,-914.5,-1129.25,932.25,2
-981.5,184.25,35.0,879.5,677.0,-703.25,-1102.25,1016.25,2
-855.5,283.5,52.0,838.0,218.0,-554.5,-950.0,1051.25,2
-766.0,335.25,14.5,780.0,313.5,-282.25,-829.0,1109.75,2
192.75,307.25,-42.0,678.25,8.5,-82.5,-911.75,1134.75,2
1267.5,288.25,-82.25,159.5,-305.25,8.25,-1024.25,1249.5,2
1393.0,217.25,-219.5,-1384.0,-293.0,161.0,-987.75,1250.25,2
1404.75,141.0,-301.75,-1383.5,-215.75,275.25,-1012.75,1237.0,2
902.5,155.75,-363.75,-1420.75,-88.0,439.25,-1044.25,1227.0,2
870.5,179.0,-336.75,-1455.25,12.0,526.5,-1095.75,1237.5,2
808.25,165.25,-275.0,-1366.75,18.25,506.5,-1142.5,1135.5,2
851.0,169.25,-283.25,-1574.0,229.75,287.75,-1147.25,849.5,2
1088.25,155.25,-603.75,-1657.5,222.75,14.25,-1147.75,638.25,2
997.0,172.75,-1129.0,-172.75,61.75,-366.0,-1107.5,513.0,2
800.25,155.5,-1117.25,319.5,14.25,-980.5,-1038.0,569.0,2
493.25,139.25,-1081.75,294.25,-295.0,-1457.25,-1010.0,581.0,2
194.25,270.25,-1122.25,-1588.0,-726.0,-1621.5,-870.5,789.75,2
283.5,665.25,-1288.75,-2000.5,-1295.0,-1567.75,-658.75,772.5,2
64.0,753.0,-1329.5,-1927.75,-1512.25,-1234.5,-668.75,534.0,2
-401.0,672.5,-1034.0,-1727.5,-1527.25,-671.25,-465.75,418.0,2
-445.5,653.0,-751.5,-1632.75,-1549.5,-317.5,-98.25,266.75,2
-487.5,643.0,-415.5,-918.5,-1624.0,-268.75,140.5,-319.25,2
682.75,617.0,207.5,145.0,-1722.0,-741.75,97.25,-500.5,2
1653.0,543.75,544.5,240.5,-1708.0,-788.0,-50.75,-671.0,2
1607.25,596.0,689.25,381.0,-1762.25,-408.25,42.25,-1161.25,2
1602.0,480.25,814.25,424.75,-1751.25,543.25,68.75,-1283.0,2
1415.0,-46.0,943.0,25.5,-1738.25,1039.75,26.5,-1204.5,2
820.25,-329.75,966.75,-908.5,-1653.0,1036.0,-92.0,-1067.5,2
74.0,-460.25,645.5,-1115.75,-1527.75,790.5,-270.0,-939.5,2
-499.5,-494.0,692.5,-555.5,-1330.5,249.75,-580.5,-832.5,2
-798.75,-514.5,670.5,734.0,-504.5,205.25,-596.5,-755.0,2
-937.25,-549.5,724.5,837.5,527.5,361.75,-239.25,-423.0,2
-1001.5,-454.75,863.5,889.25,697.0,297.75,128.0,-570.5,2
-958.25,-434.75,1015.5,549.5,525.0,138.5,642.5,-1071.25,2
-737.75,-370.0,939.0,-153.5,586.5,-97.75,901.75,-633.5,2
-533.25,-153.0,426.0,-827.75,722.5,-217.75,618.5,-876.0,2
-372.75,-43.75,124.25,-682.25,-598.5,-360.75,423.0,-992.75,2
-368.75,-23.0,-197.0,-712.0,-1211.5,-186.5,476.0,-886.0,2
-157.5,-34.0,-394.75,-741.0,-1336.0,-166.5,533.75,-1075.25,2
-17.25,-121.0,-651.25,-792.0,-1385.75,-62.5,652.75,-469.5,2
67.0,-207.75,-779.75,-473.25,-1429.5,153.75,722.0,98.5,2
237.75,-317.25,-915.0,795.25,-1457.5,265.0,800.5,700.25,2
349.5,-370.5,-943.0,1001.5,-1525.75,578.0,816.5,908.75,2
370.25,-388.5,-887.0,1075.75,-1720.25,850.0,835.5,1067.5,2
142.0,-317.5,-448.0,995.75,-1704.0,1001.5,782.0,1036.25,2
-43.0,-212.0,-47.5,91.75,-1543.25,1278.75,581.0,853.75,2
-287.0,-118.0,400.5,-522.75,-1412.75,1451.25,497.0,736.25,2
-406.0,-39.0,513.0,-1447.75,-1557.75,1538.75,458.75,501.25,2
-113.0,-10.5,410.0,-1227.25,-1871.5,1994.75,586.25,390.5,2
-197.75,44.25,-7.25,-643.5,-2213.75,2182.75,742.5,444.0,2
-173.0,53.0,-312.25,-184.25,-2303.5,1619.0,658.25,462.25,2
232.0,40.5,383.75,-869.0,-2187.0,1325.0,413.0,254.25,2
129.25,-11.25,1500.25,-830.0,-2159.0,1821.0,127.75,248.5,2
-202.75,-118.5,1456.25,-693.75,-2345.25,2194.25,13.25,205.0,2
-500.25,-179.25,1332.5,-639.5,-2502.5,2297.0,348.25,177.25,2
-642.0,-146.25,1112.0,-510.0,-2400.25,2247.25,1304.0,242.75,2
-691.5,-145.5,-161.0,-264.0,-2161.25,2206.75,1964.25,276.0,2
-800.25,-160.5,-506.75,357.75,-104.25,2149.5,1996.25,378.5,2
-802.5,-104.5,-470.75,1910.5,183.0,2022.75,1300.75,362.75,2
-700.75,-150.0,232.5,2037.0,136.25,1807.75,865.25,243.75,2
-276.5,-305.75,872.25,2028.5,54.0,1553.5,1212.5,146.0,2
-119.5,-419.0,1126.75,1882.5,70.5,1375.0,1703.0,93.0,2
-39.25,-354.0,1085.5,837.75,68.0,1097.0,1601.5,-2.0,2
531.5,-195.25,1046.75,166.5,104.25,572.5,1301.0,25.0,2
553.75,-192.75,974.75,253.75,123.25,171.75,663.5,23.5,2
378.25,-199.5,999.75,248.5,59.5,-218.5,-590.5,-54.5,2
88.25,-168.5,907.75,876.25,75.5,-526.75,-849.0,-155.5,2
-326.75,-94.5,68.0,1498.5,123.5,-728.0,-226.5,-250.75,2
-410.5,47.5,-1237.5,1572.75,190.75,-818.25,696.0,-190.25,2
-643.75,170.5,-1152.0,1608.75,188.75,-947.5,1544.75,-206.75,2
-619.5,278.0,-1052.75,1486.75,124.25,-1084.0,1139.25,-105.75,2
-634.5,285.75,-1013.0,1172.75,-623.25,-1204.0,514.75,86.25,2
-547.5,157.0,-193.25,1060.0,-1267.0,-1320.25,261.0,259.0,2
-549.5,5.0,6.75,197.75,-1135.5,-1322.0,-116.25,388.5,2
-216.5,-57.5,177.0,-19.5,-1017.5,-1330.25,-942.5,586.25,2
543.75,-179.5,-150.75,-147.0,-797.25,-1241.25,-1822.0,688.5,2
959.0,-266.75,-844.75,-89.25,-483.25,-1135.75,-2251.0,120.0,2
1371.25,-277.75,-951.5,70.25,-98.5,-1158.75,-2295.25,-672.75,2
1145.75,-222.0,-1105.0,74.75,-21.5,-1245.25,-1864.75,-790.5,2
483.75,-61.25,-1124.0,812.0,-68.25,-1328.0,-1551.75,-135.0,2
42.75,50.25,-1130.5,684.5,-68.75,-1295.5,-1755.0,167.5,2
-217.0,161.75,-1108.25,274.0,-35.75,-1060.75,-1171.75,-157.5,2
61.0,309.0,-1252.5,-50.25,-270.0,-911.0,-356.25,-1058.75,2
-105.0,235.75,-1263.0,412.0,-204.0,-1045.25,126.0,-1240.5,2
24.0,-163.5,-1179.0,808.75,-207.75,-1167.0,792.0,-1204.5,2
342.5,-377.0,-1195.25,803.25,-241.75,-1099.25,1819.5,-1175.0,2
-35.0,-156.75,-1126.75,1053.0,-166.75,-836.25,1853.5,-1113.0,2
-512.0,94.0,-1137.5,1224.25,-54.5,-940.0,719.0,-921.75,2
-942.5,-309.5,-971.75,1571.25,75.5,-1565.75,65.75,-1201.75,2
-576.75,-668.0,-849.25,1317.5,129.75,-1453.75,151.75,-1066.75,2
174.0,-572.5,-951.5,875.75,-133.25,-1310.25,523.25,-694.5,2
698.5,-435.75,-914.5,524.5,-344.25,-1018.5,627.5,-577.0,2
1009.75,-40.25,-741.0,367.0,-489.25,-844.5,-425.0,137.5,2
658.5,238.5,-390.0,-21.75,-453.75,-736.25,-1422.25,1084.0,2
-14.5,482.25,17.75,-734.5,-203.5,-703.75,-1357.5,1490.0,2
-675.25,708.25,321.5,-920.75,237.25,-542.75,-1380.25,1325.75,2
-892.75,870.25,492.75,-786.0,373.5,-452.25,-1448.75,1066.0,2
-809.0,907.75,315.0,-999.0,468.25,-570.0,-1337.5,877.25,2
-473.25,811.5,59.5,-1221.0,912.5,-306.0,-1326.75,746.25,2
4.75,645.75,-416.25,-1222.0,1354.5,44.5,-1274.75,594.75,2
777.5,398.75,-1310.0,-1351.5,1761.75,385.75,-1387.25,341.5,2
1316.25,193.75,-1321.25,-1332.5,2054.5,747.25,-529.25,317.5,2
1779.25,141.0,-796.75,-1278.0,1666.0,879.75,292.75,-160.75,2
1673.5,130.25,-120.0,-807.25,881.0,1177.5,248.5,-1400.0,2
-256.25,-351.75,1015.75,-486.0,679.25,1472.5,255.5,-1689.0,2
-1218.25,-466.25,1453.25,-531.5,456.25,1346.25,546.25,-885.0,2
-1151.25,-444.25,1354.5,-455.25,264.25,996.5,765.0,-249.25,2
-1261.5,-573.75,1472.25,-225.75,638.25,842.0,617.5,82.25,2
-1234.0,-445.0,1424.75,21.5,731.0,531.75,569.0,253.75,2
-1111.0,-356.25,1308.0,127.75,779.0,418.0,489.75,341.0,2
-1293.75,-285.5,1226.5,-139.75,760.25,304.25,419.75,620.5,2
-1212.0,-115.5,1132.75,-65.5,787.5,266.5,-59.75,1166.0,2
-686.5,-60.5,335.25,264.0,673.5,460.25,-816.0,1582.0,2
-215.5,107.0,-775.5,25.25,528.5,605.25,-1312.75,1532.0,2
-29.0,117.5,-991.0,-332.0,127.25,587.5,-1387.75,1322.75,2
322.75,141.75,-983.25,-609.5,-49.25,549.0,-1400.75,1017.0,2
515.5,129.25,-916.75,-648.5,-200.25,613.5,-1314.75,815.0,2
458.25,132.25,-917.0,-723.0,-767.0,595.5,-1073.0,783.75,2
154.25,153.75,-1030.25,-1172.75,-974.25,573.75,-838.75,633.75,2
204.75,202.0,-65.25,-1591.5,-1060.75,491.0,-702.25,403.5,2
-95.25,273.5,849.25,-1678.0,-1255.25,548.0,-253.5,132.25,2
-456.0,313.75,731.25,-1723.0,-1155.75,593.5,446.25,384.25,2
-564.0,316.0,663.25,-1742.75,-856.5,509.75,1198.25,485.75,2
-467.0,263.0,859.5,-1693.75,-657.25,439.75,1527.75,588.75,2
-1.0,233.5,1022.75,-1693.75,-727.5,582.75,1520.25,551.0,2
43.75,185.0,964.5,-1756.5,-900.0,576.0,1497.75,0.5,2
174.25,235.75,581.25,-1105.75,-31.25,225.25,1362.5,14.25,2
253.25,280.75,689.25,256.25,1204.5,47.25,1284.25,164.25,2
370.25,286.0,1264.0,382.25,1979.0,-360.0,1372.0,602.75,2
518.5,224.0,1385.5,545.25,1968.25,-571.25,1608.0,1345.75,2
735.75,206.75,1351.75,104.0,1742.75,-402.75,1723.0,1354.75,2
1160.5,278.75,1285.5,-962.5,1338.0,-127.75,1759.5,1447.5,2
1328.75,301.0,1147.25,-1442.75,1081.25,163.25,1812.25,746.5,2
1005.75,216.0,1185.5,-1226.25,191.0,78.0,1727.75,-211.0,2
528.75,49.75,1394.25,-1208.0,-172.75,364.0,1537.0,-3.25,2
237.0,83.0,1320.25,-1259.25,-653.5,656.0,1383.75,50.0,2
257.25,262.25,58.5,-468.75,-1212.0,436.25,1422.25,-440.25,2
576.0,455.5,-1239.25,1032.75,-537.25,612.25,1235.5,-1386.0,2
404.5,-166.25,-1996.75,2009.75,1010.0,1309.75,849.75,-2396.5,2
114.5,-542.25,-1825.0,1950.75,-190.75,1086.25,576.5,-2170.0,2
23.25,-229.75,-2032.0,1680.75,-701.0,385.0,273.25,-1209.5,2
-176.75,-532.25,-2056.0,1776.5,-817.75,-175.5,47.25,-257.0,2
-307.25,-463.0,-1149.25,1326.0,-941.5,-667.0,-96.5,409.25,2
-522.75,-402.0,-454.0,1462.0,-655.0,-604.5,-248.25,717.0,2
-509.75,-142.75,-579.5,1359.0,-1261.5,-794.25,-391.0,805.0,2
-504.0,261.75,-581.75,1049.75,-1205.0,-1058.0,-610.25,481.75,2
-591.5,404.5,-511.0,-88.25,-1250.25,-1525.5,-634.75,329.0,2
-557.25,456.25,-255.75,-1007.5,-810.25,-1523.5,-813.75,-349.75,2
-591.25,151.5,284.75,-1064.5,-232.75,-1186.0,-911.0,-587.75,2
-188.75,124.0,-585.0,-1149.25,-239.5,-1034.25,-931.25,-1094.25,2
-40.25,195.75,-646.5,-720.0,-10.25,-778.5,-970.5,-1285.75,2
-202.75,301.0,-233.5,-1175.75,-237.25,-1077.75,-908.5,-848.0,2
27.25,45.75,304.5,-1164.75,-82.75,-994.0,-934.0,-755.75,2
146.5,24.5,902.5,-1127.0,256.25,-879.5,-967.0,-441.5,2
377.25,70.75,1145.0,-1211.0,157.0,-1076.5,-1013.75,-295.5,2
98.25,-210.0,848.75,-1315.5,-330.25,-1167.5,-1023.25,-354.25,2
-302.25,-651.5,134.75,-1368.5,-764.25,-1196.0,-1057.75,-101.75,2
-430.5,-834.5,-552.75,-932.75,-813.25,-988.5,-1166.0,545.5,2
-584.5,-779.0,-366.0,559.25,-0.25,-675.25,-1183.0,802.25,2
-183.25,66.5,-609.5,915.0,882.5,45.75,-1127.75,39.0,2
152.5,564.0,-431.25,773.25,864.5,874.75,-1123.0,-832.5,2
345.0,493.0,306.5,694.75,970.5,1433.25,-1042.0,-1710.5,2
281.75,447.25,405.75,728.25,1134.0,1925.0,-949.0,-1788.25,2
134.0,334.0,196.5,700.5,1027.0,1947.75,-844.0,-324.75,2
196.75,-96.75,-908.0,550.5,440.0,1693.5,-683.25,-117.0,2
142.25,-30.0,-1320.25,631.5,-46.0,1698.25,-622.5,-232.5,2
207.25,1142.0,-1224.0,490.75,-523.0,1527.5,-618.25,129.75,2
234.75,1185.5,-948.0,302.25,-663.75,1094.5,-580.75,183.75,2
389.25,1149.0,-412.5,179.0,-335.75,745.25,-460.5,663.0,2
690.5,1234.0,119.0,72.5,-552.25,542.75,-352.75,962.75,2
460.0,1327.75,-133.0,242.5,227.25,258.25,-302.5,424.75,2
-188.25,1224.75,-609.0,380.25,678.75,-179.0,-154.25,-850.5,2
-544.25,-278.75,-1060.5,299.5,395.5,-670.5,56.75,-862.25,2
-416.0,-743.75,-1659.25,605.75,1103.0,-893.25,3.0,-1246.25,2
-213.25,-1027.75,-1470.75,903.5,1287.25,-608.0,-82.5,-1171.75,2
-18.5,-980.0,-1275.5,677.5,898.0,-92.0,-66.25,-825.5,2
93.75,-1059.25,-1250.0,385.5,-18.5,-249.25,-106.75,-418.5,2
247.75,-958.0,-946.25,-200.5,-949.25,-489.0,-69.75,54.25,2
387.75,-885.25,-85.75,-428.25,-481.5,-456.75,-86.75,292.25,2
407.5,-1021.75,793.75,-382.0,212.0,-494.5,2.75,459.75,2
210.25,-1170.0,1942.0,-251.75,1027.75,-250.25,125.25,315.25,2
93.5,-1251.25,2147.0,-216.75,1089.5,-302.0,89.25,147.25,2
68.5,773.75,429.25,-253.0,1167.75,-545.5,143.25,-8.5,2
198.25,989.75,-1131.25,-624.0,188.75,-705.0,164.75,84.25,2
229.5,1275.25,-1285.25,-631.25,-504.25,-509.25,85.25,263.25,2
397.0,1226.25,-728.5,-454.75,-365.5,-245.25,-6.25,353.5,2
330.75,1150.5,391.25,-176.5,-219.75,242.5,-97.25,261.0,2
-427.25,685.75,1602.5,470.25,-340.5,631.75,-81.5,410.75,2
-605.0,647.0,1729.25,179.0,-886.75,20.25,55.0,755.0,2
-605.5,599.5,1284.25,110.0,-820.25,-320.5,196.5,785.75,2
-701.75,501.5,1235.0,200.75,-697.25,-303.5,233.75,866.25,2
55.5,-78.75,673.25,-672.75,-1472.75,-752.0,286.5,1174.25,2
466.5,-534.0,378.0,-670.25,-1142.0,-809.0,408.75,1402.5,2
696.75,-556.25,406.5,-503.25,-483.75,-669.0,563.25,1436.0,2
823.0,-608.75,237.75,-632.5,-430.5,-530.75,786.0,1382.75,2
757.75,-196.25,150.5,-628.5,-98.5,38.75,979.75,1389.5,2
234.0,-33.25,-258.25,-646.25,203.75,373.0,711.0,1039.25,2
-87.25,-97.25,-447.0,-619.5,329.75,556.25,160.0,878.0,2
-388.75,-285.75,-474.75,-536.5,596.0,755.25,-209.25,686.75,2
-315.25,-575.25,-790.5,-491.0,1039.75,754.25,-509.75,565.5,2
-143.0,-1323.0,-481.0,-283.0,1440.25,669.25,-735.0,461.5,2
-256.25,-1338.0,-98.75,-268.75,1605.0,746.25,-606.75,232.25,2
-443.0,-1315.0,351.75,-26.25,2413.75,1025.75,17.25,7.25,2
-688.0,-1192.5,1049.25,45.0,2674.25,863.25,555.5,-267.0,2
-664.5,-90.75,2683.0,128.0,2658.5,363.5,614.5,-371.25,2
-360.75,716.75,1313.25,218.25,2488.5,262.75,639.75,-514.5,2
142.75,823.25,870.0,332.75,2433.0,386.5,480.5,-739.5,2
578.75,808.0,376.25,394.25,2405.25,604.0,353.5,-736.0,2
589.5,772.75,1409.75,406.75,2209.25,897.25,521.25,-707.0,2
560.75,719.0,1618.75,450.25,1506.75,1450.25,571.75,-670.25,2
276.0,680.75,1445.75,387.25,1006.25,1771.0,649.0,-600.0,2
112.25,661.25,2004.0,362.0,902.25,1639.25,579.75,-340.5,2
-107.0,624.0,2168.5,272.25,1071.75,1570.25,297.25,32.75,2
-132.75,553.75,1323.75,171.0,737.25,1362.5,106.5,263.25,2
22.75,452.75,1111.75,89.75,-51.5,1092.0,123.0,256.0,2
8.25,359.75,1448.5,194.25,-766.75,861.0,567.0,130.25,2
47.5,336.5,756.5,339.25,-352.5,649.5,774.75,92.75,2
-29.75,198.25,701.0,352.25,184.5,594.5,697.0,57.75,2
-12.5,97.75,343.75,358.75,218.0,595.5,753.0,29.5,2
-86.5,67.25,307.5,333.75,319.5,520.0,643.25,23.25,2
10.75,-92.25,183.75,254.0,1119.75,440.0,590.0,126.25,2
344.75,-332.0,-451.25,117.25,1250.25,337.75,619.25,153.25,2
581.5,-461.0,-461.25,14.0,1439.0,287.25,528.75,191.0,2
502.5,-412.75,-775.25,-124.75,802.5,231.25,292.25,711.75,2
238.5,-400.0,151.0,-26.0,-839.25,118.0,97.0,805.5,2
39.5,-370.5,459.0,300.0,-1071.0,-45.25,-110.25,82.5,2
-113.5,-259.25,-43.5,346.25,-818.0,-635.75,-271.25,-864.25,2
-275.5,-270.0,-863.0,377.5,-979.0,-823.0,-181.75,-1295.5,2
-468.75,-423.75,-1024.0,428.0,-668.5,-601.0,88.5,-1214.75,2
-600.5,-389.25,-1136.5,516.25,332.5,-630.75,462.25,-960.25,2
-480.0,-323.5,-1085.25,851.5,504.0,-648.0,639.5,-1016.0,2
-665.5,-356.75,-1120.75,986.5,171.25,-732.25,661.0,-864.75,2
-1274.75,-337.5,-971.75,855.0,-84.75,-787.75,536.0,-899.5,2
-1281.75,-317.25,-868.25,814.0,-532.5,-733.0,359.5,-565.5,2
-1371.5,-286.5,-1076.75,934.75,-977.0,10.25,326.25,-583.5,2
-1669.75,-193.25,-1214.5,940.25,-2875.75,720.5,371.0,-801.75,2
-1620.5,-143.25,-1205.0,984.0,-2892.0,758.25,358.0,-432.0,2
-1556.25,-48.75,-1514.5,751.75,-1557.0,649.25,201.75,-301.5,2
-1381.0,-15.0,-1551.25,490.75,-662.25,660.0,156.5,-513.25,2
-1043.75,49.0,-1453.25,362.25,-953.5,661.25,293.25,-457.25,2
-640.75,94.25,-1145.75,53.25,-1414.25,872.5,285.25,-513.75,2
-279.5,103.5,315.5,-40.25,-1384.0,1035.75,101.75,-443.5,2
-16.75,99.75,655.25,-198.25,-783.25,995.5,49.75,-187.25,2
61.5,38.0,704.0,-302.0,-699.75,875.25,45.25,496.5,2
-77.25,56.0,905.75,-315.0,-1539.5,776.25,-29.25,1182.25,2
-240.0,21.25,-828.25,-378.0,-1763.5,646.75,-196.0,1361.25,2
-413.5,-46.75,-845.25,-452.0,-1655.25,540.0,-222.0,1522.25,2
-581.75,-147.0,-957.25,-572.75,-1089.25,451.5,5.0,1642.0,2
-602.5,-107.25,-1117.75,-636.0,-1011.75,360.75,340.25,1703.5,2
-467.0,45.5,-1119.75,-673.75,-981.25,310.5,592.5,1513.75,2
-342.0,86.25,-1302.75,-691.5,1075.75,188.25,334.0,1020.75,2
-122.75,90.0,-1057.25,-700.5,834.75,87.75,-12.75,352.5,2
-6.5,82.0,-571.75,-634.75,763.0,14.0,-133.5,98.25,2
-32.75,10.5,-205.25,-556.5,1072.75,53.0,-185.0,-259.0,2
-19.0,-100.0,305.75,-465.0,1035.5,-248.75,-238.0,-381.75,2
-63.5,-140.0,761.0,-377.75,825.75,-588.0,-72.0,-445.5,2
-324.25,-128.25,957.5,-383.25,501.75,-938.0,359.75,-575.5,2
-598.5,-218.5,895.25,-436.75,-87.25,-1266.0,503.75,-520.25,2
-519.25,-328.0,846.25,-456.75,-1206.75,-1605.25,307.5,-352.0,2
14.25,-321.5,794.0,-467.0,-1567.75,-1817.75,-161.5,-111.0,2
1095.5,-231.25,825.75,-526.25,-794.0,-1746.25,-907.75,-27.0,2
1229.0,-208.5,822.5,-533.25,-547.75,-1641.75,-1321.25,-145.5,2
1226.75,-222.5,836.5,-475.0,-875.25,-1574.0,-1348.75,-149.0,2
1221.5,-149.5,857.75,-393.0,-957.5,-1575.75,-1043.5,-319.75,2
1230.25,-42.5,934.5,-427.75,-1270.75,-1575.75,-500.75,-499.5,2
1111.0,94.0,738.75,-528.0,-1435.5,-1522.5,-109.0,-573.0,2
500.0,150.25,430.0,-539.5,-1155.5,-1505.5,1.75,-639.5,2
-348.5,178.75,151.5,-531.5,-1032.0,-1512.25,-56.25,-575.25,2
-747.0,172.25,-10.75,-475.0,-1484.25,-1556.5,0.0,-547.25,2
-763.5,152.75,-728.75,-411.75,-1957.25,-1607.5,143.5,-446.75,2
-788.25,132.25,-1021.0,-283.75,-1733.25,-1578.5,263.0,-242.25,2
-823.75,52.25,-908.25,-130.75,-1013.0,-1613.75,69.0,-85.75,2
-812.5,30.75,-344.75,17.75,-408.75,-1703.5,-146.5,67.5,2
-721.5,41.5,657.5,153.25,-1015.5,-1758.25,-314.5,188.75,2
-693.75,90.5,1283.75,141.25,-1347.75,-1779.75,-636.0,495.0,2
1207.75,207.5,1058.0,6.0,-1584.75,-1922.0,-787.75,1022.75,2
1307.0,645.75,70.25,-355.5,-1504.25,-2359.0,-1069.75,1542.0,2
1561.75,1052.5,-464.0,-445.75,-956.5,-2439.75,-980.5,1541.75,2
1569.75,1068.0,-498.25,-498.0,-676.5,-2371.0,-730.25,1180.0,2
1487.5,1025.75,-861.5,-594.0,-897.25,-2264.25,-677.25,1029.5,2
1411.0,937.75,-737.0,-570.25,-885.25,-2063.5,-611.75,870.25,2
1284.75,757.75,-293.25,-531.75,-1266.0,-1756.75,-642.25,808.75,2
1176.25,677.75,197.75,-323.25,-1051.0,-1494.25,-406.25,797.25,2
966.0,591.0,507.25,-90.5,-66.5,-1195.5,-254.5,792.25,2
451.5,388.5,598.25,20.25,509.5,-868.0,-87.25,564.5,2
-301.75,75.5,276.25,197.25,655.0,-466.0,-62.25,307.25,2
-694.5,-238.5,-242.0,265.5,643.5,-227.25,19.0,436.0,2
-1333.75,-433.5,-458.5,441.5,727.25,-79.75,243.75,205.75,2
-1324.25,-522.0,-719.75,609.5,704.5,-38.5,503.75,-789.75,2
-1182.5,-500.75,-646.25,684.75,759.75,-55.25,608.0,-1477.0,2
-1180.25,-515.0,-521.5,656.75,834.5,-130.0,653.0,-1698.5,2
-1178.75,-463.5,-527.75,602.5,822.5,-186.25,549.5,-1250.75,2
-1187.5,-460.5,-564.0,534.5,344.5,-141.5,97.0,-764.0,2
-1173.5,-462.5,-475.0,399.25,-422.75,-285.0,24.25,-753.5,2
-1145.75,-436.75,798.25,246.25,-561.25,-607.0,283.75,-722.0,2
-1144.0,-352.25,1682.25,210.0,-497.75,-747.5,651.25,-784.0,2
-1099.0,-287.5,1904.0,282.75,-838.75,-826.75,874.5,-781.25,2
-1103.0,-284.0,1923.75,274.5,-1049.5,-767.5,758.25,-854.0,2
-1106.0,-245.0,2164.5,308.25,-928.0,-475.25,572.0,-1052.0,2
462.0,-231.75,1924.5,327.0,-689.25,-310.5,440.25,-962.5,2
851.75,-208.0,837.5,286.75,-1186.5,-184.5,461.25,-1072.25,2
875.25,-153.0,203.0,270.25,-1197.75,-231.75,518.5,-1144.5,2
897.75,-75.5,-521.25,252.0,-1329.25,-530.5,547.0,-625.5,2
903.0,-7.5,-996.0,206.75,-1403.25,-723.75,554.5,-889.5,2
897.75,89.0,-771.0,215.75,-1330.25,-848.0,611.5,-922.25,2
911.25,99.75,-128.75,233.75,-1225.5,-924.25,535.5,-336.25,2
176.5,-127.5,175.75,223.75,-980.75,-711.0,582.25,325.25,2
-1201.75,-452.25,-58.75,630.25,-747.0,-290.75,350.5,708.25,2
-1450.25,-581.75,-58.75,1294.0,-547.0,196.0,-454.0,412.5,2
-1313.75,-536.5,-434.75,1389.5,-241.5,658.5,-1224.75,-540.5,2
-159.0,-532.75,-786.0,1044.25,503.25,1167.5,-1838.0,-1500.5,2
-74.5,-557.75,-735.5,-102.25,1237.25,1227.25,-2183.0,-1336.5,2
-962.5,-535.75,-845.0,-567.5,1756.75,1098.75,-2247.5,-1279.0,2
-1476.5,-532.75,-708.0,-554.0,2064.75,916.75,-1960.0,-1296.5,2
-1440.25,-439.25,-173.75,-611.25,2041.5,714.25,-1297.25,-972.0,2
-1301.0,-362.5,94.0,-768.5,1903.0,532.0,-468.75,-1004.5,2
-1249.25,-301.75,263.5,-585.0,1790.5,444.0,-196.25,-816.5,2
-1210.75,-205.25,616.25,-223.25,1697.0,410.5,-211.25,-845.5,2
-847.5,-32.25,561.25,80.0,1603.5,439.5,224.5,-934.25,2
-434.75,130.0,613.75,355.75,1537.75,508.0,484.5,-568.5,2
-169.75,218.5,313.0,688.25,1462.0,572.25,346.25,-170.75,2
-178.0,274.0,-686.5,748.25,1434.75,672.0,154.25,205.75,2
-561.5,318.75,-731.5,600.75,1422.0,857.5,-28.25,561.0,2
-770.5,360.75,-491.25,570.0,1395.25,1015.5,-300.0,972.25,2
-765.0,354.25,-586.0,455.0,1308.25,1084.25,-389.0,1061.5,2
-766.0,333.0,-448.25,191.75,1222.25,1049.25,-81.75,1326.75,2
-502.25,597.75,-282.5,-473.25,977.25,757.5,559.5,1779.0,2
-67.75,1041.25,-186.75,-577.75,842.75,761.0,677.25,1695.75,2
-84.5,915.5,-351.25,-567.25,755.75,931.0,782.5,1544.25,2
-36.0,705.25,-580.0,-780.25,540.0,975.5,1137.25,1556.0,2
156.75,601.5,-627.25,-840.0,485.25,1036.25,1380.5,1157.75,2
108.5,461.0,-511.5,-891.0,-84.75,1084.25,1476.5,816.75,2
20.0,434.0,-505.75,-799.75,-961.25,1053.0,1390.25,582.25,2
-100.25,395.25,-604.75,-360.25,-1658.75,866.75,1048.0,512.0,2
-344.75,458.5,-125.75,429.75,-2278.75,335.25,779.5,664.0,2
-554.0,513.5,8.0,901.25,-1940.0,-117.5,647.75,666.0,2
-529.75,394.75,149.25,958.25,-1481.75,-654.25,598.5,890.25,2
-275.0,282.5,83.75,678.75,-1387.5,-660.5,238.75,1021.0,2
174.25,8.0,-188.0,-656.25,-1480.5,-587.5,35.0,1129.25,2
507.5,-321.0,184.0,-995.75,-1530.5,-574.75,189.75,1176.5,2
423.5,-636.0,247.25,-1004.25,-1544.0,-512.25,342.0,1044.25,2
239.5,-721.25,-27.25,-980.5,-1580.25,-585.75,684.5,881.0,2
83.25,-609.5,-250.5,-968.75,-1554.75,-584.25,934.5,280.5,2
160.25,-265.75,97.75,-685.25,-1482.25,-565.25,797.0,-194.75,2
-87.75,-7.75,355.5,-95.25,-1105.5,-468.75,671.0,-98.5,2
-770.25,59.5,832.75,289.5,-819.75,-258.5,343.5,230.0,2
-1079.25,0.5,925.25,870.0,-734.75,67.25,-474.0,325.25,2
-854.0,-157.5,1093.75,1149.75,-645.75,126.75,-1117.5,288.25,2
-371.25,-334.0,1206.75,1140.0,-755.75,237.25,-995.75,210.25,2
240.75,-597.75,1217.75,1129.25,-869.0,326.0,-665.75,154.75,2
606.25,-762.5,542.5,862.5,-785.5,406.0,-379.5,224.5,2
558.0,-778.75,-897.25,589.75,-480.25,490.25,-67.0,314.5,2
774.25,-764.25,-1031.75,324.75,-276.0,499.0,-73.0,196.0,2
1175.75,-637.25,-1276.75,253.5,-678.0,437.5,-121.75,-46.25,2
1576.5,-244.25,-1437.0,321.25,-932.5,371.25,-343.5,-484.0,2
1322.0,-94.75,-1277.25,611.75,-439.5,554.25,-986.0,-807.75,2
-781.0,-448.75,-811.25,607.5,190.25,816.75,-1403.25,-728.25,2
-1761.75,-511.75,-570.75,551.75,686.5,784.0,-1490.5,-545.75,2
-1574.75,-402.0,-706.5,563.0,912.0,884.75,-1243.25,-469.5,2
-1623.5,-307.75,-636.5,500.75,637.75,709.75,-1008.25,-504.0,2
-1439.0,-61.75,-307.75,533.5,444.25,382.25,-642.5,-432.5,2
-621.75,96.25,53.25,568.0,567.75,148.5,-298.75,-407.0,2
322.25,184.75,238.0,468.5,374.25,126.0,-199.75,-311.75,2
869.75,270.75,363.5,197.25,82.0,342.25,333.5,-173.75,2
835.25,253.5,866.5,51.75,-913.5,823.5,612.0,-88.5,2
1046.0,282.25,875.75,-163.0,-1333.25,1260.25,660.25,-34.0,2
1193.75,286.75,812.5,-310.75,-711.5,1081.0,538.75,-21.75,2
1121.0,296.25,797.0,-171.5,-454.0,943.0,552.5,45.5,2
803.75,302.5,603.75,-248.25,-556.5,829.75,1007.0,132.25,2
-72.25,316.5,713.75,-321.25,-264.5,700.25,788.0,221.5,2
-525.5,506.5,731.25,-602.75,-149.25,-127.25,337.25,338.5,2
-30.25,802.5,1010.25,-762.0,113.75,-663.0,-14.75,381.75,2
-15.25,937.0,1405.75,-720.25,348.25,-955.75,-188.25,480.0,2
340.5,839.75,1129.5,-702.75,354.75,-978.0,-192.0,704.5,2
1065.75,615.25,-1.5,-754.25,502.25,-647.0,-141.25,843.0,2
1481.75,517.75,-601.0,-757.0,697.0,-446.25,344.5,844.5,2
1415.0,454.75,-512.5,-691.75,1109.25,-207.25,633.25,795.25,2
1093.0,286.0,-295.5,-643.75,1541.5,-159.0,521.5,786.25,2
428.75,214.75,-728.25,-635.75,1962.25,-315.75,316.0,796.75,2
-237.25,126.5,-750.75,-567.75,2266.75,-16.5,226.75,857.5,2
-964.5,-18.5,-62.75,-472.0,2434.5,585.75,278.25,976.5,2
-1335.5,-201.0,292.25,-358.0,1959.0,877.5,457.25,1135.0,2
-1531.25,-208.75,464.25,-183.25,1231.75,668.0,719.25,924.25,2
-1519.5,-120.25,637.75,23.75,542.5,420.25,424.5,664.5,2
-1430.25,11.5,1229.25,68.0,115.5,298.75,158.25,517.25,2
-902.25,133.25,1440.25,132.75,277.0,171.0,278.75,-1060.5,2
-300.75,158.5,1251.5,497.75,253.5,315.5,516.75,-1576.75,2
1.5,65.75,1122.25,941.75,307.25,427.75,546.0,-1568.0,2
294.25,-103.0,1060.5,672.5,365.75,354.25,451.75,-1868.5,2
267.75,-205.75,757.25,64.75,389.25,203.75,500.0,-1443.0,2
4.25,-208.75,-42.75,-403.5,482.75,-99.75,432.25,-1582.75,2
-156.25,-122.25,-664.0,-864.5,554.75,-174.75,462.5,-1495.0,2
-2.5,-41.5,-866.75,-650.0,497.0,-242.0,559.25,-1489.75,2
161.25,-151.75,-909.75,147.75,482.0,-106.25,478.75,-1273.75,2
99.0,-659.25,-538.0,883.5,1008.25,288.5,-84.75,-987.0,2
-247.0,-853.75,575.25,1148.0,1188.25,441.0,-47.5,-1407.25,2
-324.25,-763.5,1092.5,863.75,1193.75,418.5,447.0,-1993.5,2
-268.5,-700.5,950.25,306.75,1211.25,256.5,362.25,-1129.75,2
-520.5,-737.0,363.75,-357.25,994.25,131.75,-32.25,401.5,2
-774.0,-705.0,-660.25,-499.75,895.0,22.5,-677.25,387.0,2
-703.25,-580.0,-994.75,-500.75,742.0,118.75,-700.25,714.25,2
-553.0,-324.5,-1015.75,263.5,496.75,101.75,-805.75,679.5,2
-381.75,-146.25,-1149.75,648.0,311.0,60.75,-1632.5,-367.25,2
-247.75,97.75,-1188.25,696.25,185.75,-120.75,-1629.5,-1040.25,2
-236.0,278.75,-563.75,354.0,201.25,-600.5,-859.5,-860.75,2
-438.25,420.0,-357.0,-271.5,123.5,-673.5,-484.5,-779.75,2
-430.75,434.25,-364.25,-786.5,-10.5,-571.0,-798.25,-844.75,2
-531.0,385.5,-361.25,-1059.5,-299.0,-425.25,-1221.0,-902.0,2
-268.5,334.75,-432.75,-834.0,-382.5,-283.75,-866.25,-955.0,2
368.0,186.25,-507.0,-329.5,-425.0,-241.75,-477.0,-806.75,2
1130.5,100.75,-481.75,273.0,-664.25,-208.75,-567.75,-709.25,2
1277.75,137.25,-307.75,620.75,-858.5,-162.25,-450.25,-761.0,2
1346.25,168.75,-240.25,498.0,-1032.25,-156.0,-355.75,-754.25,2
1373.25,87.25,143.5,363.25,-1127.75,-18.0,-363.5,-511.5,2
1133.25,69.5,433.0,576.5,-1202.25,58.25,-210.25,-247.0,2
1037.25,96.5,632.75,343.5,-1052.75,-108.25,61.0,-61.0,2
706.0,40.5,711.25,80.25,-1080.25,-222.5,411.25,167.75,2
332.75,-234.75,601.5,342.25,-1379.5,-381.25,473.75,299.5,2
-23.25,-457.0,578.75,671.0,-1538.25,-400.75,206.25,249.0,2
63.5,-490.75,522.25,594.0,-1603.5,-295.75,78.75,173.25,2
96.5,-560.0,766.25,291.75,-1600.25,-179.5,270.5,38.25,2
50.75,-494.0,942.5,638.0,-1544.75,-164.5,507.0,-278.5,2
-52.75,-314.75,402.0,767.5,-1430.5,-249.0,381.0,-296.5,2
-235.25,14.0,-635.75,722.0,-1293.5,-242.5,178.75,-49.0,2
-327.0,185.75,-986.0,703.0,-1115.25,-320.0,44.5,335.0,2
-611.75,252.25,-1220.75,313.75,-1032.25,-535.5,-58.5,704.75,2
-826.75,403.5,-1269.5,-458.0,-1028.0,-677.5,355.75,539.25,2
-1028.5,465.5,-1182.75,-1166.0,-865.0,-499.25,817.75,728.25,2
-995.5,499.5,-1077.0,-1201.0,-1025.0,-502.0,951.5,1115.75,2
-651.25,718.25,-663.25,-1500.25,-1530.0,-978.75,845.5,1293.75,2
-271.75,1027.75,148.5,-1474.25,-1348.25,-1111.25,684.25,1389.25,2
1252.5,1054.25,657.75,-1351.75,-1175.25,-1127.0,1076.5,691.25,2
1720.5,839.25,756.75,-1304.0,-1280.0,-1199.75,1411.75,953.25,2
1452.25,704.5,788.75,-546.75,-1291.5,-1148.25,1287.75,1235.5,2
900.0,572.75,788.0,896.5,-1077.75,-900.0,566.75,1323.75,2
545.75,487.25,622.75,997.0,-702.75,-647.25,-378.25,1309.25,2
471.0,362.0,-813.5,1123.75,-644.25,-491.0,-701.25,1297.25,2
582.5,133.0,-1136.5,1169.25,-751.75,-602.25,-1743.5,1221.25,2
61.0,-366.0,-1299.25,472.75,-316.25,-651.25,-1760.75,1367.75,2
-296.0,-672.5,-1433.75,-722.5,241.75,-714.0,-1780.25,1243.0,2
85.75,-880.25,-1418.75,-620.5,492.75,-537.5,-1665.25,440.75,2
-357.75,-1330.25,-549.75,-21.25,453.75,-77.25,-940.75,93.5,2
-995.5,-1633.75,655.0,732.25,740.5,-22.75,-286.25,182.75,2
-1040.75,-1552.5,1185.25,1725.5,7.0,-335.0,-5.75,254.75,2
-1020.0,-1298.75,1594.5,1833.0,-660.5,-340.25,-222.75,196.0,2
-1349.0,-1162.5,1586.25,1868.5,-746.75,-447.25,-393.0,345.5,2
-1205.5,-479.5,1358.5,1688.25,-743.75,-413.75,-100.75,362.75,2
-1219.5,-83.0,1034.25,-318.5,-738.5,-97.0,260.0,178.0,2
-1082.25,75.0,819.5,-393.75,-853.0,144.25,-232.0,-793.5,2
-884.25,346.5,611.5,-467.0,-694.0,528.0,-893.25,-1431.0,2
-798.0,660.75,209.5,-612.0,-389.0,770.0,-548.75,-1363.25,2
-805.0,13.75,-143.75,-635.5,-458.0,1062.25,-455.75,-1338.0,2
-835.75,-929.5,-338.25,-780.75,-861.25,1244.75,-287.25,-1212.5,2
-982.75,-947.75,-96.5,-363.75,-882.25,1169.5,67.75,-987.25,2
-1242.0,-436.25,471.75,1143.5,-855.75,935.5,328.5,-693.25,2
-964.75,203.0,855.25,1065.25,-627.25,746.25,527.25,-680.75,2
-898.75,445.5,823.5,1110.25,-291.0,485.5,694.75,-716.0,2
-878.25,631.25,677.5,1106.5,-127.0,375.0,754.0,-857.5,2
-628.75,1173.5,1021.75,1081.0,0.75,374.75,417.25,-977.5,2
61.5,1193.25,971.25,992.5,131.0,373.25,371.0,-920.75,2
484.25,1168.5,908.5,918.0,128.5,643.0,337.25,-615.0,2
663.5,1133.0,941.75,840.75,-39.0,950.25,458.0,-743.0,2
1095.75,1117.75,829.25,721.0,83.75,1025.25,518.75,-794.75,2
1430.25,470.75,-992.5,611.75,245.75,922.5,519.0,-437.5,2
1148.5,-412.25,-1127.5,535.5,399.25,855.25,578.5,-37.25,2
953.5,-552.0,-1077.75,506.75,525.75,733.25,494.5,189.25,2
1297.5,-877.75,-1133.0,532.75,708.0,533.25,527.0,16.25,2
1035.75,-912.0,-1207.0,578.5,649.5,367.25,488.5,-200.25,2
646.0,-899.5,-1292.25,538.25,330.25,350.5,493.75,-304.5,2
568.0,-852.75,-1407.75,516.5,231.25,270.5,497.0,-463.75,2
281.0,-786.0,-963.0,560.25,169.25,-33.5,529.0,-628.25,2
317.5,-820.0,-326.25,-1193.75,464.75,-319.0,580.25,-660.0,2
251.75,-411.5,278.25,-1467.75,752.5,-473.0,860.0,-417.5,2
3.75,495.25,570.25,-1448.25,739.75,-430.25,1090.0,-105.5,2
-563.5,553.5,876.5,-1360.75,843.25,-270.5,733.25,408.5,2
-484.0,750.0,1011.5,-1282.75,892.5,-209.5,648.25,976.5,2
-314.75,1076.75,1314.5,-1229.5,1062.0,-417.25,124.0,1345.75,2
601.0,852.0,1459.5,-925.75,1127.75,-601.5,-225.5,1342.0,2
1873.5,760.25,1243.5,794.75,1062.5,-707.75,-316.5,1117.25,2
1738.5,751.25,792.0,792.75,1071.0,-683.0,-157.0,632.75,2
1353.0,412.0,370.75,831.75,1046.0,-645.75,1114.5,19.0,2
1050.25,0.5,438.5,815.75,1160.75,-514.75,1355.0,-143.0,2
898.25,3.75,798.25,718.5,1053.0,-520.25,938.25,-89.75,2
1076.0,-256.25,975.75,279.25,1085.25,-737.5,464.75,35.5,2
808.0,-614.5,893.0,-206.25,985.25,-900.0,-182.25,10.5,2
654.5,-118.5,918.5,-382.5,526.0,-1160.0,-50.0,61.0,2
179.5,10.75,306.0,-579.5,62.0,-1083.25,145.25,316.0,2
-89.0,100.5,-376.25,-653.75,-370.75,-938.75,-16.25,441.25,2
-361.25,482.25,-911.5,-299.25,-356.25,-876.75,-729.5,476.5,2
-404.5,510.75,-1350.5,156.0,-212.25,-901.0,-919.0,575.25,2
-264.75,586.25,-1493.25,328.25,-193.75,-972.75,-721.75,795.5,2
-369.25,829.75,-1563.0,367.5,-169.25,-743.25,-325.0,706.25,2
-363.5,910.0,-1165.0,487.5,214.25,-532.25,16.25,342.25,2
-585.5,94.5,-573.0,940.25,982.75,-202.5,479.0,-133.75,2
-1309.0,-962.75,52.75,1508.0,1112.25,336.25,590.75,-652.5,2
-1613.0,-1462.5,586.0,1657.0,825.75,669.5,84.25,-998.5,2
-1483.25,-1387.5,701.0,1686.25,726.5,687.0,-126.75,-1140.5,2
-1210.0,-1235.75,964.75,1571.0,561.25,668.75,-193.5,-1208.75,2
-1045.25,-1231.75,1536.0,1368.5,329.5,645.0,241.25,-1181.75,2
-878.75,-838.5,1503.5,847.25,103.25,588.5,580.5,-1145.5,2
-629.0,-334.25,924.0,366.25,-471.25,446.75,992.75,-1044.0,2
-369.25,192.0,573.25,-39.0,-561.5,275.0,1474.5,-752.25,2
-249.25,561.5,106.0,-251.5,-761.5,153.0,1758.0,-382.75,2
327.5,978.0,-453.75,-584.25,-703.25,-2.25,1295.75,71.5,2
471.5,1110.25,-667.75,-669.5,-369.0,-166.25,80.5,310.0,2
429.5,1117.75,-683.5,-565.75,-151.25,-411.5,-758.0,511.25,2
605.5,863.0,-720.75,-420.25,46.5,-609.0,-892.0,664.0,2
581.5,696.0,-827.75,-357.75,50.75,-897.0,-1031.25,661.5,2
424.0,649.75,-651.25,-297.25,-216.5,-1204.25,-1109.0,662.5,2
308.0,453.25,-387.0,-199.0,-362.25,-1287.75,188.0,600.0,2
52.0,292.25,-202.25,-217.0,-388.0,-1400.75,618.5,722.0,2
-276.5,79.5,-133.75,-176.75,-403.5,-1527.5,896.75,900.0,2
-726.25,-36.0,-144.0,-218.75,-322.75,-288.25,1063.75,896.5,2
-1095.75,-141.0,-348.75,-173.25,89.0,633.0,1045.75,872.25,2
-878.0,-223.25,-470.0,-142.0,305.75,737.5,-361.75,808.75,2
-559.25,-330.0,-384.5,-63.75,105.25,825.25,-1362.0,539.0,2
-485.5,-418.75,-296.0,-39.25,30.25,1049.25,-1381.5,297.5,2
-699.5,-378.75,-24.5,44.5,-4.25,1182.25,-1080.5,186.75,2
-1493.75,-295.75,115.25,97.5,-342.75,1192.5,-369.75,-29.75,2
-1877.25,-237.75,426.75,94.25,-534.75,1146.75,506.0,-249.75,2
-1626.5,-293.25,543.5,235.25,-334.0,1122.5,495.75,-389.75,2
-133.25,-273.0,612.5,335.0,-249.5,1140.0,389.75,-471.0,2
447.75,-241.75,923.25,488.0,-94.75,1290.75,-188.25,-364.0,2
738.25,-281.75,1019.5,506.75,-167.0,1491.5,-781.5,-242.75,2
643.5,-342.5,1124.25,407.0,-310.25,1697.25,-1035.25,-9.0,2
367.0,-357.25,935.25,331.5,-438.5,1869.0,-1365.5,-180.0,2
-253.0,-373.0,837.75,260.25,-663.5,1836.75,-1440.5,-627.5,2
-1028.5,-430.5,1046.75,258.0,-575.5,1860.0,-1323.0,-414.75,2
-909.25,-442.25,1129.0,247.75,-592.25,1732.25,-1028.0,-549.0,2
-193.75,-493.25,833.5,250.75,-553.0,1507.25,-1044.75,-492.0,2
134.25,-370.0,30.5,262.25,-486.25,1258.25,-705.5,-250.75,2
230.25,-224.25,-574.75,177.75,-414.25,897.0,-380.0,-267.0,2
601.5,-219.75,-995.25,112.25,45.75,601.5,-413.75,-167.25,2
1095.0,-216.25,-1273.75,101.5,396.5,204.5,-454.0,-259.75,2
1048.0,-204.5,-1174.75,89.0,733.75,-80.25,-713.5,-72.25,2
647.75,-168.5,-1071.0,56.5,1023.5,-254.75,-820.5,-53.5,2
790.25,-115.75,-836.25,-9.25,1032.75,-283.5,-1200.5,8.25,2
643.0,-71.0,-711.75,-35.0,1122.5,-249.75,-1428.5,61.0,2
780.25,-74.5,-463.0,-11.75,1399.75,-32.75,-1442.0,276.25,2
824.75,-213.5,281.25,156.0,1670.75,496.5,-1397.0,585.25,2
68.25,-93.5,779.5,351.0,1722.0,676.75,-1250.5,-74.25,2
-392.75,95.0,891.25,304.75,1704.5,558.0,-884.5,-226.0,2
-540.0,115.0,619.5,205.25,1740.5,428.5,-844.75,-95.25,2
-569.5,106.0,541.25,231.25,1723.75,306.25,-668.75,-91.0,2
-491.0,197.25,94.5,207.0,1680.75,85.0,-745.75,168.75,2
-897.0,251.0,-1301.25,153.5,1516.75,64.75,-709.25,312.0,2
-1325.25,278.25,-1505.25,58.25,1427.0,12.0,-788.5,270.75,2
-770.5,249.75,-1480.5,-21.0,1352.0,-54.25,-938.75,360.75,2
-151.75,294.75,-1386.25,-106.25,1279.75,-61.0,-883.25,198.5,2
422.25,331.25,-1357.5,-216.0,697.5,-124.25,-873.75,337.75,2
719.0,387.0,-1330.5,-301.25,163.25,-293.0,-540.75,393.0,2
319.0,315.75,-1026.0,-386.5,-287.5,-289.5,-434.5,484.75,2
130.0,249.5,242.0,-415.0,-593.5,-301.0,-293.75,456.0,2
859.5,181.0,880.5,-520.25,-541.0,-211.0,-31.75,397.0,2
1320.75,18.5,958.25,-594.25,-506.75,-155.25,277.25,376.0,2
1200.5,-184.5,1046.0,-531.5,-516.0,-249.0,621.75,309.25,2
815.5,-260.0,1510.5,-294.0,-597.75,-296.75,715.75,273.25,2
586.75,-230.5,1779.25,-63.5,-899.0,-420.5,556.75,192.25,2
769.25,-162.0,1762.25,-11.75,-1629.5,-571.25,-57.0,146.25,2
817.75,58.0,1780.5,-0.75,-1936.75,-880.5,-747.25,76.0,2
1128.25,260.0,677.75,4.75,-1555.5,-1289.75,-727.75,42.75,2
