0,1,2,3,4,5,6,7,label
-13.5,-53.75,153.5,60.0,158.75,-274.0,-13.25,-323.75,3
-25.0,-74.0,843.5,-58.5,163.25,19.5,-62.75,373.5,3
-61.0,-95.75,765.5,-104.75,134.25,60.75,-98.0,740.75,3
-184.75,-96.75,619.5,-49.5,105.0,-117.25,-128.25,493.25,3
-225.25,-90.75,228.5,-80.0,168.5,-31.5,-190.75,9.0,3
-209.5,-100.5,65.0,-109.0,288.5,-8.5,-233.25,-508.0,3
-218.0,-105.25,33.5,-130.25,383.75,-86.25,-235.5,-542.75,3
-317.5,-98.5,-31.0,-135.25,386.25,-164.5,-321.5,-565.5,3
-283.25,-112.25,-774.0,-92.75,333.0,-588.25,-347.25,-640.5,3
-110.75,-112.0,-1047.5,-92.0,272.5,-813.25,-364.0,-760.25,3
-58.25,-125.25,-859.75,-77.25,125.75,-409.5,-388.5,-858.25,3
-101.25,-132.25,382.75,-80.5,-29.5,-121.5,-370.75,-1047.25,3
-143.25,-74.75,814.5,-118.0,-29.25,111.0,-248.5,-1326.75,3
-117.25,-8.5,717.5,-39.0,25.75,402.0,-165.5,-1515.0,3
-94.0,111.0,521.5,21.25,37.75,455.25,-178.5,-1483.0,3
56.0,170.5,343.25,74.25,-59.25,602.5,-137.25,-1248.0,3
241.5,69.0,241.25,79.0,-168.25,540.5,-43.25,-1157.75,3
331.5,-53.0,187.0,76.75,-276.5,365.5,60.25,-1108.0,3
426.5,-120.0,334.25,94.75,-440.25,273.0,33.25,-1021.75,3
395.75,-146.75,251.25,78.25,-543.5,149.75,-1.75,-1065.0,3
344.75,-166.25,-378.0,124.25,-582.75,227.5,-149.75,-1026.5,3
174.25,-150.25,-464.25,30.5,-600.75,-2.75,-305.25,-856.75,3
55.25,-99.0,-160.0,-132.0,-632.5,-503.0,-370.25,-764.75,3
101.0,-100.25,-207.75,-186.5,-658.5,-493.75,-383.75,-763.25,3
17.5,-65.25,-126.25,-248.5,-645.0,-306.75,-323.5,-857.5,3
-129.25,-8.75,-144.25,-298.75,-637.0,-344.5,-333.75,-933.75,3
-102.25,-22.25,-160.75,-203.0,-609.75,-199.75,-244.75,-849.75,3
61.5,-8.75,-134.0,-109.5,-585.5,-101.25,-137.5,1100.25,3
-19.5,43.25,-151.75,-15.0,-512.75,50.75,-49.5,1336.5,3
35.25,28.75,-56.0,74.75,-349.0,421.75,10.75,1391.25,3
119.75,-6.75,3.75,104.0,-231.0,944.5,-42.75,215.25,3
56.0,9.0,53.25,114.25,-343.75,1096.75,-49.75,-739.25,3
73.75,23.25,44.0,88.25,-576.0,1156.0,-83.25,-930.5,3
30.75,51.5,68.0,115.5,-607.25,1214.0,-228.75,-1052.5,3
172.0,106.5,81.0,119.0,-524.75,1081.75,-544.0,-1102.5,3
282.5,194.0,84.5,126.5,-527.75,161.5,-508.0,-1071.75,3
198.25,345.0,44.5,116.0,-457.0,-698.25,82.0,3.5,3
7.75,443.25,45.75,102.0,-343.0,-828.5,539.25,227.5,3
-158.75,407.75,81.0,143.25,-336.25,-842.5,876.0,59.5,3
-251.0,227.75,72.25,103.0,-234.25,-439.75,948.75,133.75,3
-369.5,116.25,93.75,79.5,-58.0,-124.5,785.0,-51.25,3
-367.0,118.75,64.0,159.75,-165.5,-183.0,687.0,10.0,3
-239.75,192.0,40.0,142.75,-376.25,-203.75,445.0,23.0,3
-118.25,184.75,19.5,27.75,-347.5,-224.25,296.75,226.25,3
20.0,-69.0,13.5,48.25,-265.5,-78.75,142.5,456.5,3
82.25,-326.25,23.25,118.0,-169.0,168.0,-32.75,622.0,3
-24.0,-515.0,46.75,190.75,26.0,177.0,5.25,577.5,3
-52.0,-660.25,63.5,200.0,196.75,347.75,210.0,560.25,3
15.75,-640.0,50.5,126.5,287.25,332.25,364.0,585.25,3
133.0,-312.25,38.0,53.0,245.5,403.0,361.75,623.25,3
239.0,-41.75,47.25,0.75,225.25,507.25,424.75,698.0,3
234.25,39.5,81.0,-103.5,230.75,661.0,416.75,730.0,3
155.5,126.0,-3.75,-187.25,242.5,820.25,431.0,567.0,3
62.5,100.0,-100.5,-214.25,129.25,925.0,273.5,543.0,3
10.5,89.25,-95.75,-312.5,-104.5,1027.75,-41.75,1036.0,3
-98.5,109.75,-90.0,-310.75,-82.0,845.75,-315.5,1060.0,3
-351.25,112.0,-39.0,-259.5,-78.5,171.0,-523.75,1100.75,3
-625.25,101.25,2.5,-347.0,-313.5,-822.0,-810.5,1131.75,3
-583.25,56.75,-8.25,-535.25,-466.25,-1104.5,-885.5,1150.0,3
-346.25,67.75,-34.0,-434.5,-321.0,-1027.5,-758.75,1148.0,3
-212.75,89.5,-70.5,-187.75,-173.75,-913.0,-577.25,1137.75,3
-71.75,59.5,-83.5,-163.5,-164.5,-115.75,-387.5,1095.25,3
113.25,38.75,-154.0,-225.5,-242.25,273.5,-274.5,1040.0,3
222.5,26.25,-239.75,-53.5,-256.75,597.0,-296.25,1074.5,3
205.25,20.25,-174.75,315.5,-125.5,605.0,-150.5,1173.25,3
159.0,69.5,-136.75,431.25,-11.5,514.25,-254.5,1237.75,3
37.75,213.0,-179.25,523.5,123.75,450.25,-686.75,1189.25,3
-143.25,411.5,-138.0,560.25,235.0,282.0,-1035.25,1107.0,3
-221.5,771.75,-50.5,536.25,385.0,222.25,-718.5,1140.0,3
-289.5,991.0,88.0,377.25,507.0,136.75,-80.75,1176.5,3
-36.75,638.25,237.75,123.0,526.5,134.75,507.5,1128.25,3
341.25,-236.25,329.75,38.75,515.75,130.75,921.5,1023.25,3
562.75,-583.0,420.0,-81.75,492.25,318.0,869.0,885.0,3
818.5,-478.25,382.75,-269.0,497.25,375.75,547.75,677.25,3
896.75,-513.25,191.5,-485.25,796.25,406.0,486.5,575.75,3
995.5,-766.75,8.25,-346.0,1056.75,227.75,578.25,471.25,3
1256.5,-718.25,-144.0,-180.5,978.25,78.5,761.25,381.0,3
1263.0,-520.25,-265.75,-151.75,909.25,183.5,901.0,298.0,3
1000.0,-376.25,-274.75,-79.0,865.5,130.75,663.75,224.25,3
355.75,-252.0,-169.75,-47.5,620.5,225.75,314.0,164.0,3
233.25,-80.0,-117.5,201.0,286.75,125.25,325.75,186.75,3
-230.25,106.25,-57.0,502.75,161.75,98.25,575.25,129.25,3
-341.25,122.5,24.0,677.0,134.5,42.0,684.5,-3.5,3
-452.0,127.5,44.25,638.25,43.75,-52.0,593.25,-81.75,3
-615.0,104.5,45.75,641.5,-295.5,-60.25,574.5,-268.5,3
-870.5,82.75,4.25,805.5,-467.75,-77.0,597.0,-558.25,3
-1355.5,-60.0,-77.5,928.0,146.75,-16.5,1029.75,-852.25,3
-1714.5,-422.25,-110.0,971.75,1179.75,35.25,1409.5,-1033.0,3
-1389.25,-446.25,-116.75,695.5,1281.5,-17.25,1412.0,-1318.5,3
-1034.5,-360.5,-162.75,432.75,871.75,-201.25,1351.25,-1405.75,3
-971.5,-306.5,-128.75,-5.75,745.5,-181.5,1329.25,-1192.75,3
-599.25,-201.75,-84.25,-679.75,733.0,-240.0,1214.0,-1216.5,3
-466.5,-133.5,-49.5,-754.0,805.25,-359.75,543.75,-1262.25,3
-409.75,-80.5,3.0,-905.5,835.25,-405.5,32.5,-1229.75,3
-323.5,65.25,24.0,-780.0,892.5,-517.0,-296.0,-1315.0,3
-248.25,41.75,50.5,-565.5,722.75,-519.75,-512.5,-1313.75,3
-215.75,100.0,54.25,-451.0,274.0,-532.0,-538.5,-1284.75,3
-210.0,75.25,50.25,-402.5,502.0,-528.25,-604.0,-1269.25,3
-12.75,80.0,56.25,-369.5,678.75,-533.75,-634.5,-1138.75,3
71.5,133.5,81.25,-151.75,363.0,-504.75,-538.25,-923.75,3
107.25,95.75,117.75,382.75,-105.75,-368.25,-382.75,-640.75,3
94.0,138.0,109.25,773.75,-773.75,-426.5,-433.5,-394.5,3
63.75,175.25,90.0,839.5,-1326.75,-455.0,-380.75,-192.25,3
87.75,259.75,67.5,740.75,-1379.5,-502.25,-230.25,34.75,3
455.25,398.0,6.75,651.5,-1203.75,-511.0,-156.75,127.25,3
497.5,408.0,-21.25,402.0,-1397.0,-386.5,-123.5,206.5,3
438.5,371.5,7.5,-88.5,-1615.5,-410.0,-7.25,249.0,3
528.5,365.25,0.75,-517.75,-1712.75,-383.75,-21.25,52.25,3
448.5,321.5,-38.25,-831.0,-1604.25,-349.75,-247.75,-20.0,3
345.5,316.5,-11.5,-1099.0,-1359.5,-386.5,-474.75,50.5,3
-32.5,137.0,66.25,-1184.75,-895.0,-550.0,-718.5,68.5,3
-244.0,-12.5,113.5,-1195.75,-298.5,-886.0,-608.25,142.75,3
-209.5,53.0,54.5,-1015.5,-295.0,-849.75,-598.0,406.0,3
-79.5,126.0,-94.25,-714.25,-326.25,-476.25,-877.0,466.5,3
5.5,121.75,-199.5,-513.0,-162.0,-259.75,-1131.5,118.25,3
-127.5,97.5,-162.5,-407.0,61.0,-190.25,-1144.0,102.0,3
-119.25,102.0,-106.5,-229.5,700.0,-152.0,-1140.25,501.5,3
-12.75,52.0,-219.0,22.25,1085.0,-80.75,-1097.0,591.0,3
117.0,15.0,-404.5,85.25,822.25,-35.0,-1015.0,877.5,3
254.75,31.25,-524.25,-18.5,579.25,-22.0,-781.25,1357.5,3
505.0,158.75,-475.0,-37.25,587.0,113.75,-415.75,1289.5,3
567.5,331.25,-306.75,61.0,691.0,404.25,-187.5,900.5,3
451.0,469.75,-155.75,200.5,652.0,666.75,-597.25,473.25,3
367.25,411.0,-63.0,504.5,107.75,874.25,-658.5,-137.75,3
265.25,233.5,-49.0,614.75,-155.75,1107.25,-381.25,59.75,3
165.5,206.0,93.25,726.25,304.0,1372.0,-376.75,71.5,3
86.25,81.5,344.0,728.25,672.5,1523.25,-32.75,208.75,3
57.0,-102.5,464.0,-109.5,594.25,1625.5,-32.0,351.5,3
-0.5,-218.0,540.25,-633.75,235.0,1723.0,181.5,311.5,3
16.25,-374.0,572.75,-992.0,353.25,1557.25,527.75,453.0,3
3.75,-570.5,539.5,-1133.0,645.0,1106.25,559.0,16.25,3
-62.25,-589.0,508.25,-1179.5,144.75,790.0,466.75,-164.75,3
-207.5,-563.25,590.0,-1062.25,-439.75,649.5,40.5,-492.75,3
-285.0,-555.25,677.75,-930.75,-550.75,411.5,-521.25,-734.75,3
-125.75,-204.5,597.5,-713.5,-407.0,251.5,-1167.25,-680.0,3
159.5,78.25,494.75,72.75,-630.25,213.25,-1559.75,-634.75,3
211.25,204.25,292.25,789.5,-1402.25,91.0,-1679.0,-416.75,3
283.75,225.0,-40.5,811.75,-1218.0,-99.75,-1417.75,-196.0,3
366.75,251.25,-310.75,913.25,-377.5,-178.5,-963.75,23.0,3
315.75,346.0,-445.75,526.5,141.25,101.0,-757.0,33.5,3
353.75,274.25,-404.25,224.0,-0.75,407.75,-638.5,-50.25,3
119.25,186.5,-310.75,20.75,-305.5,475.5,-482.75,-127.0,3
-101.5,205.25,-241.0,-173.5,-406.0,475.75,-526.5,-250.5,3
-253.25,214.25,-197.75,-213.0,-676.25,403.5,-652.0,-351.5,3
-199.0,221.25,-190.75,-123.0,-623.25,291.75,-711.0,-328.0,3
-42.5,244.25,-164.0,175.75,605.25,163.25,-513.0,-236.5,3
12.0,136.25,-209.75,194.25,1404.25,131.5,-161.5,-186.0,3
121.75,21.0,-276.75,265.0,934.75,182.25,413.25,-157.5,3
68.5,-103.75,-349.25,268.75,1902.25,216.5,474.75,-189.5,3
-28.75,-235.5,-358.0,291.25,1952.25,352.75,726.75,-301.5,3
-179.0,-367.75,-308.0,441.0,1928.0,389.5,1072.25,-419.5,3
-273.25,-453.75,-247.25,446.75,2026.5,306.75,1079.75,-467.25,3
-197.25,-417.0,-133.75,396.75,2025.5,196.75,1285.5,-593.75,3
-275.75,-432.5,-22.25,461.0,1851.5,55.5,1483.25,-575.0,3
-333.5,-280.0,33.25,460.75,1726.5,-41.5,1660.0,-416.0,3
-199.0,-27.0,46.5,340.0,1608.75,-130.25,1406.0,-326.25,3
-25.0,144.25,-1.25,190.25,1277.5,-153.5,1172.75,-56.75,3
150.25,214.25,-48.0,45.25,-293.75,-144.25,910.5,10.75,3
23.5,71.5,-52.75,83.5,-583.5,-126.75,837.0,-21.25,3
-68.5,77.75,-66.5,66.75,-1066.0,-55.25,945.5,5.25,3
-98.0,167.5,-47.0,148.5,-1139.25,-119.75,888.0,-25.0,3
-273.25,97.0,-33.5,287.25,-896.0,-208.75,688.5,96.25,3
-344.0,84.25,-0.5,278.25,-1171.25,-283.25,404.75,175.75,3
-289.25,97.5,16.5,174.5,-1749.25,-302.0,92.75,239.0,3
-359.75,16.5,58.75,169.75,-1568.5,-233.0,84.5,315.0,3
-383.5,-35.25,75.5,146.5,-1952.25,-296.5,544.0,491.0,3
-249.5,-35.25,42.0,67.5,-1959.0,-290.75,1424.25,558.75,3
-210.0,-105.0,56.0,103.75,-1953.75,-351.25,1853.75,458.75,3
-105.25,-282.25,77.25,31.75,-1919.75,-395.0,1613.75,440.25,3
-80.75,-317.5,83.5,19.0,-1820.75,-281.5,958.25,527.75,3
-168.25,-186.5,60.25,130.25,-1925.0,-233.25,364.75,619.5,3
-153.0,-143.0,58.25,208.5,-1509.75,-246.5,103.5,597.25,3
-131.5,-88.75,38.0,230.75,-1023.25,-284.5,-110.75,634.25,3
-104.75,-5.75,52.75,120.0,-801.75,-302.0,-25.0,656.25,3
-87.25,2.75,73.25,-8.0,-697.75,-309.0,393.5,703.0,3
-99.5,-2.75,49.75,-138.5,-602.0,-234.25,700.75,702.75,3
-40.5,19.75,77.25,-129.75,-500.25,-134.5,205.5,640.0,3
21.0,50.5,126.25,-50.75,-315.0,-73.25,-416.25,622.25,3
42.5,65.0,105.25,-203.75,-192.5,-69.5,-854.25,551.25,3
58.75,107.0,40.5,-400.5,-169.0,-163.75,-881.5,513.25,3
56.0,92.5,5.25,-464.5,135.5,-173.25,-467.0,493.5,3
54.5,39.5,0.75,-331.25,-32.25,-118.5,84.5,448.5,3
12.75,-20.25,13.25,-56.25,78.5,-119.25,294.5,409.5,3
103.25,-14.0,-26.5,-47.5,-113.25,-125.75,1.0,500.0,3
298.75,64.5,-45.75,-154.5,-466.5,-157.0,-354.25,513.5,3
291.5,58.0,-26.0,-145.25,-593.0,-226.25,-728.5,461.75,3
194.25,46.75,-1.5,-137.25,-449.75,-355.75,-746.75,314.25,3
109.75,24.0,18.75,-108.5,-413.75,-547.75,-295.0,123.25,3
62.5,16.0,-9.25,-108.5,-204.75,-604.25,225.75,146.75,3
-21.75,-4.0,-16.0,10.0,442.5,-316.25,162.0,119.25,3
-133.75,-0.75,-38.25,3.25,203.5,-29.5,-338.25,-2.5,3
-50.5,123.5,-63.5,-196.75,395.5,-276.25,-622.0,-40.0,3
17.0,123.0,-72.0,-243.75,150.25,-915.75,-724.0,-7.25,3
34.25,106.5,-62.5,-262.0,-463.75,-925.0,-594.25,5.25,3
40.25,124.0,-50.0,-200.25,-1423.0,-922.0,-160.75,106.0,3
36.75,93.5,-16.75,-130.75,-1727.75,-934.75,361.25,180.25,3
148.25,97.5,-22.25,-218.75,-1165.0,-949.0,328.25,258.0,3
132.75,6.75,-72.75,-194.5,-1035.25,-492.75,31.75,348.5,3
19.0,-116.75,-58.0,-108.0,-481.25,851.5,-180.5,239.5,3
67.25,-114.0,-56.5,-133.0,700.75,963.75,-541.75,270.5,3
69.0,-68.75,-57.0,-39.75,1500.5,973.25,-831.0,276.75,3
10.5,-32.75,-105.75,-45.75,1475.5,967.75,-837.25,158.0,3
49.5,-13.25,-155.0,-120.0,1055.75,935.0,-587.0,-17.75,3
123.5,9.5,-120.5,-124.75,1394.5,913.0,-346.0,-306.75,3
304.25,67.75,-78.5,-260.25,1594.0,899.75,-237.25,-421.75,3
360.5,84.25,-35.0,-187.25,1904.0,870.0,-53.25,-411.0,3
215.75,-2.75,-16.0,-40.75,2481.0,321.5,258.75,-342.25,3
94.75,-66.5,-27.5,-10.5,2500.5,-205.75,280.0,-337.25,3
22.5,-107.75,-3.75,-6.0,2418.25,-445.0,-81.5,-304.5,3
49.5,-109.25,-1.75,-67.75,2209.0,-475.75,-717.75,-361.5,3
136.0,6.25,-2.5,-72.0,2040.0,-550.5,-1488.0,-670.5,3
161.25,48.0,6.25,-59.75,2207.25,-486.75,-1742.5,-893.0,3
132.5,31.75,-6.75,11.0,2352.25,-651.0,-1299.25,-1016.25,3
69.25,14.75,-3.25,135.0,2359.75,-792.25,-837.75,-1032.0,3
-20.5,-27.0,-18.25,156.0,2246.25,-863.75,-338.75,-939.5,3
-150.0,-50.25,-27.25,240.25,2037.25,-939.0,-103.25,-1009.5,3
-288.75,-110.0,0.0,363.5,1723.75,-957.5,275.5,-1163.25,3
-294.25,-87.75,0.25,241.75,1258.75,-759.0,726.75,-1188.25,3
-73.5,19.5,-29.0,-17.75,938.75,-586.0,1195.0,-1103.5,3
9.5,59.5,8.5,41.5,1094.5,-495.0,1251.25,-991.5,3
-212.75,-44.0,93.25,229.5,1029.75,-371.0,792.75,-797.75,3
-190.75,-16.5,81.0,75.5,-1028.25,-299.0,371.0,-316.75,3
-207.5,-7.25,-13.0,95.5,-1010.0,-357.25,157.0,35.75,3
-194.25,-13.0,-19.5,50.75,-937.5,-559.5,393.25,337.75,3
-89.25,32.5,84.75,-26.5,-752.5,-715.0,696.25,816.5,3
-207.25,-64.5,132.25,23.5,-824.25,-770.0,793.25,1300.75,3
-203.25,-22.0,150.5,43.75,-662.75,-685.75,736.25,1559.0,3
-380.5,-29.5,128.0,163.0,-488.0,-672.0,616.5,1673.5,3
-215.5,-24.5,38.75,54.25,-810.75,-422.75,549.75,1579.0,3
40.5,-27.75,-14.5,91.5,-726.25,-47.25,400.0,1120.75,3
20.0,-86.75,41.5,144.0,-1000.5,63.5,197.75,898.0,3
155.0,-41.75,100.75,91.75,-1286.0,172.25,48.5,760.0,3
120.25,-14.5,102.5,91.0,-1384.5,160.0,83.25,823.25,3
43.0,-21.75,50.75,152.0,-1249.5,178.25,66.25,1079.5,3
-12.25,-32.25,-99.0,104.25,-1004.25,228.5,-154.25,1227.0,3
69.5,46.25,-232.25,-32.75,-723.75,242.0,-380.5,1267.25,3
10.5,74.75,-290.5,5.0,-500.5,320.75,-489.75,1156.75,3
0.5,88.5,-319.25,1.75,-697.5,387.75,-590.75,1160.0,3
30.25,77.75,-297.75,66.25,-668.25,417.0,-797.25,1126.0,3
-39.75,44.5,-206.0,-3.75,-940.75,411.5,-937.0,1122.0,3
19.5,53.75,-177.5,-155.25,-1168.0,323.0,-891.25,1085.0,3
22.5,49.75,-132.0,-192.0,-792.75,202.0,-718.75,959.25,3
10.0,-13.25,1.25,-203.0,-244.0,58.5,-544.25,903.0,3
-56.0,-59.5,54.0,-283.5,-11.25,41.5,-610.25,889.5,3
-117.75,-17.5,96.25,-317.75,-54.75,264.25,-868.0,779.25,3
-104.5,-2.0,211.75,-267.75,60.5,392.25,-1019.5,550.5,3
-57.25,-38.75,357.0,-220.25,164.0,581.75,-817.5,447.0,3
63.75,-20.25,390.25,-163.0,799.75,765.5,-438.5,311.0,3
152.25,-3.75,265.75,-75.5,1238.5,791.75,-214.75,138.25,3
127.0,20.5,147.5,-13.0,793.25,767.25,-134.25,-22.75,3
130.0,47.5,40.75,-42.75,679.0,717.75,-51.25,-270.0,3
24.5,-48.5,-54.75,12.75,1053.75,621.25,106.25,-579.75,3
-63.0,-114.0,-98.75,26.5,1729.75,494.75,213.0,-877.75,3
-27.75,-133.25,-112.75,-3.5,1970.5,524.25,102.0,-999.25,3
7.25,-72.5,-121.5,20.75,1585.75,747.75,-90.25,-1092.25,3
-47.25,-66.75,-92.25,140.75,1305.75,1019.25,-5.75,-1327.5,3
-157.0,-78.75,-48.5,158.75,964.5,1132.5,453.5,-1287.0,3
-108.0,6.0,-64.75,6.25,1380.75,1127.75,951.0,-1213.0,3
-162.75,-4.75,-30.25,96.75,2123.0,971.5,1108.5,-1296.75,3
-366.25,-44.25,40.0,219.25,2084.25,843.0,900.25,-1134.0,3
-221.5,30.5,56.25,58.25,892.75,742.75,648.25,-1029.25,3
-73.75,56.5,50.75,104.5,733.5,643.0,625.0,-1085.0,3
-88.25,6.5,-47.75,206.0,457.0,614.75,792.75,-1155.25,3
89.25,47.5,-209.25,64.5,483.5,625.5,800.5,-1302.25,3
99.75,64.0,-323.5,62.0,850.75,691.0,340.75,-1434.25,3
-123.75,46.5,-401.75,75.25,825.5,659.0,-374.25,-1539.5,3
-57.75,54.75,-473.5,-21.0,535.25,594.25,-851.75,-1374.75,3
128.0,47.5,-442.25,-136.5,-103.0,428.25,-889.25,-946.5,3
171.25,31.25,-295.25,-201.5,218.5,335.25,-745.75,-905.75,3
200.5,-4.75,-96.25,-92.75,435.5,231.25,-890.5,-1161.25,3
144.5,10.25,85.25,-57.5,210.0,32.5,-1272.0,-1344.5,3
128.75,52.25,190.0,-98.25,211.5,-130.25,-1364.0,-1405.5,3
62.5,44.25,200.25,-125.5,-673.0,-244.75,-1389.25,-1436.5,3
-20.75,36.5,83.5,-97.0,-1280.25,-202.25,-1266.0,-1515.75,3
-17.25,36.0,-98.75,-64.5,-1555.25,-205.0,-919.25,-1586.75,3
0.25,28.0,-323.5,-142.75,-1456.25,-224.75,-733.5,-1588.25,3
-71.5,-20.5,-418.5,-128.75,-1063.5,-230.25,-733.5,-1509.25,3
-110.5,-31.0,-255.0,-124.5,-896.5,-209.75,-892.5,-1394.5,3
-68.25,-13.25,107.0,-73.0,-922.75,-225.0,-1068.5,-1160.75,3
-107.25,-89.5,549.0,-70.75,-1308.75,-345.75,-1056.0,-806.75,3
0.25,-60.25,930.25,-217.0,-1703.0,-453.25,-826.75,-568.5,3
65.5,-7.0,1154.25,-145.0,-1585.75,-528.0,-494.0,-550.25,3
-3.0,-49.5,1180.25,-1.5,-1299.75,-584.75,-265.25,-500.0,3
36.0,19.0,932.75,-85.0,-1404.5,-607.25,-191.75,-431.5,3
56.5,35.25,584.0,-34.0,-1346.25,-472.25,-291.0,-434.25,3
-24.75,-12.25,194.75,15.25,-1202.75,-355.0,-400.25,-393.75,3
19.0,15.0,-238.0,-97.0,-1281.75,-377.25,-421.5,-289.75,3
57.5,14.5,-494.75,-40.5,-1215.0,-330.25,-345.75,-150.25,3
39.25,23.75,-585.75,2.5,-1392.5,-261.75,-135.75,-31.25,3
36.5,5.0,-536.0,-5.75,-1401.25,-261.0,32.25,52.75,3
53.25,19.5,-449.5,-2.0,-1350.5,-263.0,149.0,-4.25,3
77.25,20.25,-355.75,44.0,-1825.5,-276.75,138.75,30.25,3
89.25,44.75,-245.0,-4.5,-1956.75,-315.25,87.0,225.75,3
89.0,70.25,-152.25,13.25,-1904.25,-347.75,132.5,320.25,3
31.5,40.25,-193.75,16.5,-1655.5,-379.75,385.25,395.5,3
27.5,44.75,-199.5,-99.25,-1529.25,-404.25,788.5,426.25,3
-2.25,57.5,-62.25,-135.0,-1495.0,-417.5,980.0,454.0,3
-79.75,52.5,119.0,-128.25,-1015.5,-380.0,1034.25,513.75,3
-125.5,18.0,195.5,-97.75,-820.75,-382.0,1061.5,646.75,3
-89.25,43.0,53.0,-119.25,-931.5,-412.0,1190.0,805.25,3
-68.75,48.25,-40.25,-65.75,-809.5,-396.5,1212.5,801.0,3
60.75,54.75,-175.0,-60.25,-495.0,-326.25,1119.5,752.5,3
357.0,93.25,-107.25,-111.5,-412.75,-281.5,1094.75,720.75,3
476.5,122.75,74.25,-83.5,-310.75,-293.0,1139.75,697.75,3
438.0,117.0,149.75,-13.75,-367.75,-279.5,1252.0,667.25,3
365.25,110.75,202.0,-25.5,-614.0,-284.25,1287.75,629.0,3
258.75,76.75,176.0,38.75,-693.0,-303.5,1246.25,622.0,3
89.75,8.75,107.0,69.75,-731.25,-279.5,1146.0,531.75,3
11.25,-10.25,19.25,29.5,-582.5,-218.5,1066.75,459.75,3
-66.0,-99.0,-29.25,156.25,-175.75,-166.75,892.75,295.0,3
-129.0,-121.0,-124.25,132.5,-91.0,-82.0,825.5,243.75,3
-77.75,-65.25,-81.0,13.25,-141.75,-11.75,834.25,328.5,3
-175.5,-71.5,29.25,39.75,1.5,31.0,975.5,230.25,3
-244.75,-86.25,-11.0,30.5,-174.0,100.25,1159.0,220.0,3
-235.5,-86.25,-164.75,-51.0,-400.75,171.25,1225.5,255.0,3
-221.25,-62.0,-291.0,-129.25,-626.0,226.5,1370.5,293.25,3
-129.75,-6.5,-391.0,-220.5,-670.25,251.75,1346.25,477.0,3
1.5,59.25,-475.5,-390.25,-567.5,249.75,1217.25,498.25,3
98.5,66.0,-343.75,-461.0,-483.25,233.75,942.5,204.0,3
45.25,3.5,-121.25,-229.5,-178.0,228.0,564.5,-170.5,3
-23.25,-6.25,122.0,-161.25,-278.25,222.0,91.5,-506.5,3
19.0,58.25,312.75,-179.75,-421.25,221.25,-277.75,-873.5,3
-68.5,-17.75,401.75,132.25,-38.25,288.25,-191.25,-941.5,3
-366.75,-143.75,394.75,415.0,206.0,312.5,-1.5,-874.5,3
-373.5,-82.75,255.0,384.5,164.75,291.25,32.5,-776.75,3
-385.75,-122.5,124.25,539.75,533.0,327.0,-2.0,-703.0,3
-416.25,-194.75,6.5,595.0,642.5,306.0,-156.5,-498.5,3
-92.5,-74.5,-40.75,299.25,560.75,243.0,-457.5,-310.0,3
41.5,-26.5,-50.75,234.25,660.75,192.5,-653.75,-396.75,3
-230.75,-62.25,-213.75,268.0,780.75,175.5,-949.0,-428.75,3
-406.0,-83.75,-190.0,174.0,779.75,163.5,-1144.25,-348.0,3
-16.5,-13.5,119.0,15.5,578.0,109.5,-1190.0,-310.25,3
43.0,-46.25,284.25,44.75,713.0,130.25,-1037.25,-120.75,3
283.0,-2.5,302.0,-38.5,571.5,145.5,-715.0,-44.0,3
568.0,14.5,96.0,25.25,763.25,135.5,-290.75,-136.25,3
406.75,-48.0,-94.75,178.75,994.0,92.75,75.5,-305.25,3
285.75,-6.75,-136.5,233.25,1074.0,59.75,396.0,-351.75,3
-103.0,-69.5,-276.75,264.5,1112.75,15.75,639.75,-188.75,3
-186.0,-36.5,-332.5,183.75,1063.5,-23.75,699.25,-105.25,3
-367.0,-61.0,-292.5,225.5,1332.25,-57.25,587.25,180.75,3
-316.0,1.0,-189.0,25.5,1330.5,-106.25,513.0,516.25,3
-254.75,67.5,32.5,5.5,1423.75,-84.25,504.0,766.75,3
-305.5,24.75,241.5,-21.0,1049.5,-137.0,532.25,906.0,3
-121.0,40.5,264.25,-164.0,508.0,-164.0,743.75,932.0,3
-111.75,52.75,268.5,-145.25,532.0,-138.0,895.0,952.0,3
-286.75,41.25,199.25,-27.0,678.0,-66.75,865.5,899.5,3
-478.5,-74.0,-80.25,43.5,348.0,34.0,782.0,877.75,3
-476.5,-230.5,-326.25,-74.5,-131.25,83.75,807.5,796.0,3
-352.75,-217.25,-456.5,-137.25,-113.0,105.75,894.5,659.25,3
-31.25,-34.5,-456.5,-148.5,-59.0,54.5,800.75,535.75,3
252.75,62.75,-316.25,-218.75,-120.25,3.0,664.5,450.5,3
472.25,132.75,-134.25,-383.5,33.25,-69.0,589.25,417.75,3
535.75,216.25,40.75,-535.0,660.25,-126.25,541.5,373.0,3
444.5,128.0,247.5,-465.75,1128.25,-127.25,605.5,307.5,3
181.75,17.75,366.0,-379.25,1006.0,-125.5,637.5,209.5,3
259.0,59.25,319.25,-443.5,648.75,-135.25,629.0,224.0,3
682.75,270.0,139.25,-800.25,-129.5,-274.75,423.75,543.5,3
928.0,668.5,-216.75,-689.75,-209.5,-507.5,37.5,794.75,3
1028.5,708.0,-471.75,-489.0,-601.75,-570.25,-296.0,698.75,3
920.75,659.25,-438.5,-485.25,-735.25,-445.75,-428.0,621.5,3
616.5,638.5,-504.75,-406.5,417.5,-469.0,-572.25,618.75,3
-50.5,502.25,-463.75,-384.75,1149.25,-591.25,-540.5,598.0,3
-521.0,381.5,102.5,-291.0,1596.5,-726.25,-486.5,542.5,3
-973.5,340.25,570.25,-145.25,1221.25,-988.25,-468.25,244.5,3
-1034.25,335.75,670.5,-63.5,1378.25,-1033.0,-343.75,43.25,3
-760.5,250.25,624.25,6.75,1978.25,-841.0,-388.75,142.5,3
-630.0,24.5,549.5,22.75,1619.0,-640.0,-486.25,268.25,3
-534.0,-329.0,538.5,135.0,1564.25,-238.0,-756.25,523.75,3
-644.5,-1064.0,425.0,338.25,1075.5,269.5,-1001.25,660.0,3
-710.5,-993.0,347.0,724.0,964.5,283.25,-913.0,529.25,3
-365.0,-595.25,146.75,479.25,839.25,181.5,-826.25,514.75,3
378.0,-171.0,-55.0,18.25,-761.25,219.5,-998.75,570.0,3
835.75,587.0,-68.25,84.5,-1012.25,194.25,-1068.0,379.25,3
764.25,581.25,-168.0,160.25,-139.75,409.0,-1132.25,351.5,3
607.25,491.75,-421.5,185.5,61.75,688.25,-1191.75,399.0,3
530.75,445.25,-398.75,277.75,53.25,725.0,-1200.5,516.0,3
319.0,177.75,-245.0,479.25,-138.25,763.5,-1290.0,568.5,3
198.75,145.5,-222.5,654.75,-258.75,818.75,-1421.75,519.0,3
100.5,72.75,29.0,552.75,-24.75,814.0,-1391.0,831.75,3
90.75,61.5,349.75,426.25,105.25,795.5,-1281.5,798.25,3
59.5,-10.75,428.75,168.0,671.5,735.0,-1246.25,661.75,3
-34.5,-159.0,164.25,-152.5,1427.25,635.5,-1205.75,572.75,3
-91.5,-263.5,-5.0,-304.0,1669.75,530.5,-1067.5,281.5,3
-171.75,-365.25,119.0,-367.25,1695.75,500.25,-999.0,355.25,3
-158.75,-558.75,94.25,-345.5,1965.0,572.25,-974.5,631.25,3
168.25,-615.75,-110.0,-271.5,2288.25,656.5,-948.5,732.75,3
432.0,-487.75,-324.0,253.0,2403.75,703.5,-557.5,412.25,3
-277.0,-590.0,-366.0,1085.25,2439.75,927.0,174.0,345.75,3
-890.0,-643.5,-211.75,1274.0,2377.25,920.5,362.75,478.75,3
-827.75,-674.0,-257.5,1052.25,1343.0,559.75,295.5,697.25,3
-615.75,-573.25,-331.5,785.75,346.0,456.75,543.75,909.5,3
-359.75,-245.5,-582.75,-218.0,134.25,211.75,436.75,837.25,3
302.0,33.75,-829.75,-748.75,610.25,58.5,542.5,512.25,3
-310.25,-410.5,-527.25,-246.75,711.75,33.25,613.5,350.5,3
-561.25,-596.0,-323.5,-66.75,-477.75,-170.25,542.75,125.25,3
-534.75,-475.5,-299.25,174.0,-1536.25,-202.75,662.75,-190.75,3
-508.5,-417.25,55.0,204.75,-2086.0,-383.75,570.5,-154.5,3
-474.75,-322.5,415.75,239.5,-2254.25,-522.5,629.5,46.25,3
-598.75,-242.0,491.0,103.5,-1891.5,-670.0,585.5,61.5,3
-644.75,-114.0,445.5,-41.75,-2019.0,-769.75,575.75,85.75,3
-594.0,-45.5,281.5,43.75,-2497.5,-822.75,734.0,128.75,3
-411.5,32.0,251.0,50.5,-2708.5,-827.25,923.0,45.0,3
-251.0,104.0,222.75,190.25,-2528.0,-724.5,829.75,-55.0,3
-35.25,229.5,248.75,332.5,-2408.5,-620.75,537.5,64.25,3
265.75,250.75,285.0,399.75,-2077.0,-532.25,276.75,64.5,3
369.5,252.0,152.75,285.5,-1511.0,-526.5,221.0,-113.75,3
285.0,238.0,50.5,244.25,-1348.75,-472.25,521.0,-344.25,3
45.5,90.5,-82.5,133.25,-1761.0,-468.0,661.25,-652.0,3
-151.25,-60.5,-130.25,-233.25,-2006.25,-398.25,648.75,-869.0,3
-341.5,-128.25,-132.25,-414.5,-1719.0,-339.0,551.0,-1104.25,3
-228.25,21.5,-50.0,-613.5,-1189.0,-334.25,598.25,-1244.25,3
129.5,241.5,-76.25,-530.0,-919.25,-283.75,786.0,-1379.5,3
381.5,372.0,-219.0,-336.75,-1093.75,-225.25,757.75,-1531.25,3
515.75,383.5,-384.25,-305.5,-962.25,-77.75,635.75,-1600.75,3
538.0,326.5,-441.25,-175.0,-856.75,54.25,439.5,-1576.75,3
540.25,294.0,-353.5,-235.0,-377.0,276.25,326.75,-1571.0,3
509.5,233.75,-292.5,-353.5,777.25,604.25,304.5,-1624.5,3
453.75,139.75,-147.0,-462.5,1432.75,830.75,182.0,-1670.75,3
471.75,173.75,-118.75,-877.0,870.75,879.0,233.25,-1658.5,3
563.25,284.0,-144.5,-1200.0,-174.5,605.75,362.5,-1632.0,3
597.0,265.0,-142.25,-1361.0,-407.0,127.75,514.0,-1580.75,3
503.25,225.25,-186.0,-1433.25,-582.5,-163.0,594.0,-1436.0,3
350.5,362.0,-387.5,-1111.25,-535.25,-396.0,377.25,-1228.5,3
286.5,720.25,-654.5,-721.5,-198.75,-736.25,42.25,-1020.0,3
138.0,765.25,-581.0,-529.25,200.0,-987.5,-39.75,-902.75,3
-28.75,752.5,-339.75,-525.75,385.75,-796.25,-171.0,-895.25,3
24.25,746.5,71.75,-554.75,388.5,-214.5,-627.5,-881.5,3
-65.0,554.0,448.75,-453.0,906.0,124.5,-965.25,-532.25,3
-240.0,338.0,464.0,-366.25,1970.75,367.75,-1013.5,-335.0,3
-283.25,128.25,420.5,-176.25,2661.75,531.5,-430.0,-235.5,3
-319.5,-18.75,416.0,317.75,2273.5,427.75,462.25,-194.75,3
-109.25,64.75,452.5,932.5,2125.0,453.0,986.25,-40.75,3
230.5,212.25,454.5,1103.5,1228.75,615.25,1042.0,190.75,3
259.75,137.75,272.25,1142.5,667.0,936.25,953.5,346.75,3
230.25,107.5,-105.75,1063.0,787.5,1257.75,398.5,500.75,3
382.5,129.25,-353.25,581.5,1274.5,1302.0,13.25,557.5,3
577.0,-41.5,-198.75,16.25,1238.75,1254.25,78.25,598.5,3
741.25,-182.0,123.75,-692.25,2204.25,1128.0,-132.75,587.25,3
937.0,-156.0,605.5,-794.5,2759.0,1123.5,-188.25,636.5,3
1186.0,-144.25,989.0,-821.25,2544.0,1138.25,-405.0,601.5,3
853.5,-588.0,910.5,-584.5,2275.25,1069.0,-521.5,551.0,3
384.5,-909.5,96.5,17.0,2051.5,969.0,-655.75,509.0,3
183.5,-831.25,-833.25,315.25,1477.5,903.25,-367.5,396.75,3
-11.25,-708.25,-809.75,549.5,322.75,881.25,267.5,346.0,3
-183.5,-632.75,-432.75,570.0,-12.25,843.25,357.75,336.75,3
-344.25,-553.0,-64.25,801.75,241.5,769.25,-106.75,414.75,3
-377.75,-362.0,418.75,983.0,597.75,700.75,-816.25,454.0,3
-388.25,-228.75,748.25,839.5,921.25,615.25,-359.0,415.0,3
-340.25,-116.75,1023.0,596.75,1116.75,374.25,328.75,468.75,3
-313.25,-259.25,991.25,311.25,1457.25,291.0,700.75,735.25,3
-528.75,-488.0,965.0,202.5,1930.25,425.25,852.5,712.0,3
-1114.75,-400.0,1121.75,386.75,1875.75,332.0,516.0,45.75,3
-1076.25,-344.0,1060.0,182.5,1680.5,221.5,-89.5,145.75,3
-843.0,-357.25,315.5,91.5,1509.5,191.5,-900.5,381.75,3
-791.25,-249.0,-349.0,521.75,1307.75,76.75,-837.75,204.25,3
-579.5,-207.5,-611.25,692.25,1030.5,-80.25,-551.25,384.25,3
-503.25,-399.75,-721.5,583.0,855.0,-268.5,-369.5,427.0,3
-458.5,-444.5,-449.0,257.5,1293.25,-380.25,33.5,520.25,3
-261.25,-202.0,-162.25,-105.5,1820.25,-411.0,380.75,597.25,3
-179.5,88.5,140.75,-202.0,1550.75,-434.0,575.5,458.0,3
-117.25,69.0,224.5,-196.75,791.25,-466.75,324.0,457.25,3
-169.5,101.5,294.25,-300.75,403.0,-573.25,196.0,225.25,3
-147.5,30.75,245.0,-325.0,309.5,-562.5,236.5,88.5,3
-152.0,-28.25,102.0,-118.25,210.0,-699.0,140.75,-60.5,3
-100.0,-26.75,10.75,-12.25,265.75,-796.75,-96.75,-94.0,3
-60.75,-47.5,-39.0,2.75,460.25,-902.5,-296.75,-75.75,3
-121.5,36.5,-114.5,-38.5,642.25,-954.25,-293.0,-58.5,3
-317.25,176.75,-327.75,-54.5,40.75,-910.75,69.0,-66.75,3
-295.75,255.75,-483.5,-81.75,-928.5,-925.5,404.75,-65.25,3
-101.25,255.5,-516.75,-68.0,-1433.75,-879.25,698.75,66.75,3
152.0,327.75,-410.5,-57.5,-1630.25,-908.75,519.75,237.0,3
502.25,335.5,-532.5,-21.0,-1498.0,-856.5,-279.0,430.25,3
594.0,345.5,-641.25,-15.0,-1300.25,-905.5,-884.5,469.25,3
731.0,354.5,-898.5,-65.75,-1229.5,-922.5,-1080.5,424.75,3
771.75,335.0,-1044.5,-70.5,-1164.5,-867.75,-742.75,311.25,3
597.5,299.75,-717.0,-78.25,-1023.0,-888.75,-329.25,251.5,3
403.75,249.5,-411.75,-0.75,-815.25,-817.5,-306.75,333.25,3
220.25,209.25,-61.0,56.5,-818.25,-786.0,-434.25,363.75,3
143.25,177.75,234.0,24.5,-983.75,-727.0,-342.0,357.25,3
97.0,168.0,383.0,-58.0,-1064.75,-615.25,-147.5,376.5,3
50.0,127.5,372.75,-95.75,-1040.75,-525.75,209.5,428.0,3
-2.5,98.5,253.0,-159.0,-952.25,-439.5,186.5,475.75,3
-83.25,89.75,144.5,-298.0,-873.5,-375.0,-90.0,706.75,3
-155.0,124.5,-59.5,-358.25,-1191.5,-269.0,88.75,963.0,3
-244.25,141.0,-278.75,-353.0,-2094.5,-216.75,391.5,1147.5,3
-439.25,155.5,-593.0,-392.5,-2004.5,-223.25,622.0,1391.5,3
-345.25,162.0,-742.75,-478.5,-2063.75,-180.75,478.5,1641.5,3
-42.75,101.75,-639.0,-490.0,-1976.75,-166.75,303.5,1612.0,3
148.5,62.75,-377.0,-368.5,-1131.5,-81.0,-115.0,1496.75,3
313.75,47.25,-23.0,-214.25,-241.5,14.75,-332.0,1328.25,3
320.25,23.25,276.25,-172.5,-380.0,91.0,-162.25,1242.0,3
438.25,-16.0,464.75,-155.75,-362.25,130.5,-92.25,1311.25,3
471.0,3.25,417.75,-98.25,-592.25,145.5,318.0,1322.25,3
75.5,2.5,304.0,-113.5,-769.5,171.75,651.25,1303.5,3
-471.0,-60.25,196.25,-73.5,-1090.5,168.75,747.25,1417.75,3
-1029.75,-64.75,114.0,-68.0,-1419.25,198.75,506.5,1476.0,3
-1179.0,-43.75,117.0,-71.25,-1465.0,207.0,26.25,1375.25,3
-1036.25,-24.5,-29.75,54.0,-1528.0,260.5,-239.25,1145.75,3
84.75,-4.0,-358.5,56.0,-1323.5,301.25,-280.75,418.25,3
970.25,4.25,-659.0,62.5,-627.75,286.75,-167.5,-325.25,3
1067.25,53.5,-859.75,69.5,90.0,290.25,-41.25,-890.0,3
999.25,90.25,-958.25,-99.5,831.75,253.0,255.0,-1379.0,3
837.5,94.5,-939.5,-66.25,1385.5,263.25,455.75,-1576.25,3
491.5,64.75,-929.0,166.0,1376.25,284.0,385.25,-1757.25,3
-131.25,-5.75,-932.75,277.5,1293.5,312.0,233.75,-1930.5,3
-472.5,-12.25,294.25,347.75,1115.0,349.5,-98.25,-2104.5,3
-624.5,-0.75,1084.5,438.0,801.0,329.0,-442.25,-2101.5,3
-510.25,7.0,1100.0,471.75,1022.25,329.25,-653.25,-1854.75,3
-255.25,22.5,1077.5,460.5,1441.0,309.75,-789.5,-1627.75,3
-22.75,28.75,1033.0,399.0,1633.5,293.75,-736.5,-1484.0,3
56.0,54.75,980.75,282.5,1792.25,288.25,-464.25,-1428.0,3
45.5,66.25,906.75,39.75,1517.75,270.5,-238.0,-1490.5,3
75.5,41.0,5.25,-266.75,1278.0,325.25,-146.75,-1588.5,3
-90.75,8.25,-566.25,-450.75,1371.5,386.0,-106.25,-1747.0,3
-461.0,-24.0,-665.0,-387.0,1479.5,315.75,-52.25,-1921.5,3
-619.0,-44.75,-660.25,-396.25,1471.75,109.5,-12.25,-2048.0,3
-459.5,-105.75,-703.5,-421.0,1572.5,-161.5,-101.5,-1726.75,3
-515.25,-190.25,-783.0,-158.5,1595.5,-255.0,-71.5,-1608.25,3
-779.25,-216.0,-619.25,58.0,1420.75,-182.5,-152.25,-1589.75,3
-1158.25,-195.75,-489.0,80.0,1403.25,-130.5,-340.5,-1316.25,3
-1113.5,-157.5,-414.5,-4.25,1356.5,-204.75,-355.25,-743.75,3
-1073.25,-122.0,-361.75,-10.5,1196.5,-286.0,-460.75,-520.0,3
-741.5,-89.5,-265.0,114.25,838.75,-176.75,-540.25,-678.5,3
850.5,-62.75,-198.5,166.75,606.75,-118.75,-444.5,-673.5,3
836.5,-52.75,-266.25,114.5,613.0,-5.0,-278.25,-947.5,3
846.0,-54.0,-388.5,31.75,530.25,230.75,-238.0,-1223.75,3
846.0,-39.25,-496.75,-75.5,785.5,376.0,-286.5,-1053.5,3
840.75,-11.5,-558.25,-248.25,1257.0,417.5,-344.0,-1040.5,3
246.0,21.75,-604.75,-303.25,1285.25,279.25,-348.75,-858.75,3
-1226.25,24.5,-428.5,-190.25,1233.25,187.75,-272.75,-663.5,3
-1193.5,1.0,-335.0,-152.25,1069.0,178.0,-256.0,-725.25,3
-1151.75,8.5,-377.0,-231.5,916.75,34.0,-223.75,-413.0,3
-1091.0,20.25,-441.5,-240.75,667.5,-39.25,-141.0,-168.5,3
-683.5,40.5,-1044.75,-177.25,445.0,-4.25,-47.75,-46.25,3
1111.0,56.25,-1046.5,-70.75,580.75,60.75,-7.5,154.0,3
1150.5,72.25,-916.25,95.0,834.75,197.75,-17.25,129.5,3
1129.25,64.5,-881.75,131.5,1168.5,261.0,-5.5,117.25,3
1085.75,41.0,35.75,137.25,1216.25,266.25,12.75,285.0,3
1036.5,28.75,1232.5,103.25,1324.25,219.75,26.75,457.0,3
980.5,3.75,1214.0,45.0,1362.25,158.0,68.75,530.25,3
-450.25,-4.25,1207.5,46.75,1148.5,113.25,124.5,576.75,3
-1072.25,19.5,1159.75,54.25,937.25,21.75,172.25,706.5,3
-1105.5,71.0,1125.5,158.0,807.5,59.25,158.5,860.75,3
-1082.25,106.5,-137.0,124.75,880.5,117.5,67.25,895.75,3
-1045.5,120.0,-1032.5,65.25,820.0,159.5,15.0,784.5,3
-1055.5,114.0,-1153.5,98.75,1022.0,132.5,22.75,631.5,3
-1034.0,124.75,-987.25,128.75,1186.0,60.25,125.0,514.0,3
-1011.5,163.75,-108.5,142.0,1136.75,123.0,250.0,487.0,3
-972.25,125.5,690.0,-133.25,1287.5,35.75,316.0,720.75,3
-699.5,72.25,1025.5,-646.5,785.25,-410.0,318.75,971.0,3
-136.5,255.25,1233.0,-582.25,353.75,-584.0,284.5,816.0,3
-25.75,594.0,995.75,-425.0,139.0,-503.0,291.0,657.75,3
39.0,763.75,-148.0,-435.0,-425.75,-483.5,361.25,625.0,3
146.0,713.25,-579.5,-393.0,-620.75,-478.0,511.75,113.5,3
142.25,630.0,-546.0,-517.75,117.0,-404.25,533.75,-174.5,3
266.75,522.25,-282.0,-462.25,622.75,-366.25,219.75,-344.5,3
326.75,314.25,271.0,-184.25,967.5,-189.0,65.25,-273.75,3
461.75,145.25,350.5,-37.75,1119.0,-162.75,108.75,-107.0,3
428.75,132.25,-402.0,102.75,915.75,-47.0,92.25,5.5,3
211.75,169.25,-1200.0,85.0,963.25,3.25,376.25,176.0,3
44.75,145.0,-1195.75,128.75,728.25,59.5,463.75,289.5,3
-421.5,75.0,-676.25,47.75,665.25,174.25,423.25,414.75,3
-644.0,0.5,424.25,118.25,932.75,226.75,412.0,502.5,3
-661.5,-124.25,854.75,378.25,970.25,264.75,-38.75,629.0,3
-481.0,-242.0,995.25,540.5,1174.25,265.25,-400.75,713.5,3
-154.0,-417.5,1109.25,560.0,1251.0,306.5,-378.0,871.75,3
295.25,-567.5,1187.75,585.25,957.5,337.25,-361.25,963.0,3
524.5,-694.25,311.0,565.75,954.0,433.75,-521.0,998.0,3
366.5,-850.25,-749.75,498.25,1035.25,520.0,-159.0,1002.25,3
-136.0,-986.75,-675.5,569.25,883.25,584.5,242.5,880.5,3
-982.0,-941.25,-605.25,740.0,443.75,602.0,290.5,674.75,3
-1803.75,-874.0,-570.75,701.0,-54.25,568.0,311.75,475.75,3
-1726.25,-788.25,-603.25,638.75,-278.25,509.25,156.75,377.75,3
-1699.5,-711.25,780.25,541.0,-458.0,417.0,160.0,160.5,3
-867.25,-662.0,1166.25,394.75,-612.5,324.75,125.25,-191.25,3
371.75,-584.75,1132.0,473.0,-577.25,329.75,-56.0,-445.75,3
414.0,-517.5,917.0,599.0,-488.0,388.25,-84.5,-285.0,3
468.5,-454.5,709.25,569.25,-317.25,340.0,60.5,-71.0,3
556.75,-349.25,783.0,545.0,-346.0,273.0,156.0,30.25,3
696.75,-243.0,244.0,585.25,-534.75,174.75,148.25,106.0,3
671.75,-187.75,-266.75,571.25,-736.5,3.75,136.25,112.25,3
134.5,-123.25,-955.0,348.25,-873.75,-78.5,139.75,158.75,3
-629.5,-13.5,-1371.25,-97.0,-965.75,-155.25,191.5,202.25,3
-908.5,76.75,-1417.0,-468.25,-993.0,-209.0,194.0,236.5,3
-897.25,176.0,-1110.5,-571.75,-1206.0,-312.5,191.5,201.5,3
-891.0,188.75,-599.0,-610.75,-1308.0,-356.75,147.0,97.5,3
-837.5,161.25,-500.75,-674.0,-1323.25,-302.75,98.0,-72.0,3
-436.0,188.25,-929.25,-680.25,-1333.0,-161.0,111.5,-247.0,3
-386.0,258.5,-864.25,-619.5,-1343.25,38.75,131.75,-381.25,3
-473.0,298.5,-805.25,-525.75,-1309.75,104.5,64.25,-478.25,3
-841.0,228.75,-778.5,-491.5,-1212.75,258.5,55.5,-501.75,3
-863.5,169.25,-809.5,-443.25,-1120.5,477.25,147.25,-477.0,3
-70.75,151.75,-813.75,-392.0,-1037.75,665.75,108.25,-449.25,3
1029.75,146.5,-827.5,-344.75,-1021.75,800.0,85.0,-419.75,3
964.25,137.75,216.0,-316.0,-1025.0,830.0,158.25,-281.0,3
963.25,128.0,1108.5,-329.5,-1043.25,796.75,173.0,-91.25,3
1022.75,122.5,1009.75,-292.0,-918.5,664.5,197.25,113.75,3
255.25,150.0,907.5,-272.75,-836.5,574.25,195.75,377.0,3
-812.5,232.25,863.0,-245.25,-1045.25,652.0,120.25,627.75,3
-673.5,293.25,753.25,-211.0,-1019.0,616.25,98.75,832.0,3
138.75,315.75,732.5,-180.5,-955.5,464.25,55.25,961.25,3
-95.25,263.0,886.5,-133.75,-942.5,381.25,89.0,1005.5,3
-511.25,230.5,943.75,-102.75,-978.25,328.75,155.5,1036.0,3
-665.5,243.5,1020.75,-35.5,-1024.75,381.25,160.0,1047.5,3
-542.75,217.75,1081.25,44.75,-714.25,424.0,153.25,947.5,3
197.0,197.0,1126.5,80.25,56.0,460.5,80.25,816.5,3
675.25,174.75,569.75,80.5,379.75,402.5,12.0,668.5,3
974.75,129.5,-373.75,27.25,126.5,328.25,-16.75,513.75,3
1149.25,112.0,-1021.0,-49.0,-207.0,358.75,-11.75,456.0,3
706.75,85.75,-1085.25,-77.5,-249.5,293.0,10.75,311.25,3
-164.75,54.25,-1071.75,-105.75,-270.5,335.25,30.5,98.75,3
-266.25,24.75,-1071.0,-196.0,-386.25,321.5,79.5,76.5,3
-337.75,2.5,-1056.5,-224.0,-506.75,207.0,111.25,147.25,3
-358.25,30.5,-1048.75,-213.75,-567.75,109.25,92.25,97.75,3
796.0,30.0,-1042.5,-228.25,-479.0,52.5,90.75,35.5,3
1070.75,33.5,-1009.0,-230.25,-265.5,-92.5,114.25,132.25,3
1042.0,49.0,634.75,-198.75,-250.0,-292.25,148.5,300.75,3
-21.0,33.75,1083.75,-163.0,-445.0,-436.25,172.75,366.25,3
-1381.0,23.0,1069.75,-176.5,-691.25,-658.75,200.75,249.75,3
-1852.25,-8.25,1029.5,-145.0,-892.25,-652.0,221.0,211.25,3
-1846.75,-24.75,985.75,-78.75,-709.0,-637.75,239.25,93.5,3
-1218.5,-33.75,952.0,-30.75,-155.75,-538.5,275.5,-46.25,3
81.5,-38.5,950.75,-16.75,411.25,-469.75,278.5,-5.5,3
1650.5,-43.5,970.0,-19.75,631.5,-669.0,221.75,-41.25,3
1984.75,-16.25,1005.25,13.0,515.75,-796.0,204.5,-53.25,3
424.75,9.75,472.75,-10.25,342.5,-917.0,244.5,-108.0,3
-30.0,-15.5,-821.5,-131.0,-3.25,-979.75,244.0,-195.5,3
125.0,49.5,-977.75,-476.0,-463.75,-1320.75,153.5,-275.25,3
567.5,231.25,-745.5,-457.25,-1059.5,-1744.25,67.25,-628.75,3
2060.25,273.0,-665.25,-353.0,-953.25,-1659.75,39.75,-865.5,3
1575.25,232.0,-905.25,-396.25,-524.5,-1355.25,-104.5,-906.75,3
1199.0,423.25,-940.25,-390.25,-623.25,-1245.0,-183.0,-988.0,3
591.5,458.25,-587.0,-383.75,-384.25,-1007.5,-148.75,-1049.75,3
-847.5,260.75,-935.25,-115.25,-86.0,-926.75,-159.25,-882.0,3
-1012.25,77.0,-884.5,496.5,27.0,-726.5,-75.5,-630.0,3
730.0,34.75,-624.75,79.25,-373.75,-573.5,-12.5,-327.0,3
959.5,144.0,410.0,-435.0,-469.75,-442.5,-57.5,-344.75,3
979.75,165.25,895.75,-346.5,103.5,-263.0,-19.25,-452.25,3
1180.5,281.0,845.75,-501.5,274.0,-134.75,-112.5,-685.0,3
1224.75,334.0,851.0,-375.75,39.0,28.5,-369.5,-874.0,3
-527.75,495.0,868.0,-347.25,-435.5,123.25,-401.5,-974.0,3
-883.5,561.25,986.5,-272.5,-318.75,327.75,-314.25,-1069.5,3
-1082.0,496.5,1091.25,-188.0,255.75,448.75,-162.0,-1134.75,3
-1259.25,444.75,762.25,-53.5,-4.5,563.75,20.5,-1132.0,3
-1582.25,490.75,294.75,269.0,-1003.5,673.0,66.75,-386.75,3
-1877.25,551.25,-397.5,287.25,-1642.25,769.25,170.5,266.0,3
-2152.75,524.25,-984.0,426.5,-1433.75,853.25,113.0,811.75,3
-2243.0,386.75,-1058.5,408.5,-551.5,947.5,-92.5,1123.5,3
-2050.75,209.0,-1140.25,491.5,87.75,1069.0,-201.75,1237.75,3
-411.5,49.0,-1240.0,504.25,879.75,1122.0,-393.25,1248.0,3
864.0,-96.75,-1339.25,383.5,1558.75,980.5,-497.5,832.5,3
1146.5,-269.75,-925.0,377.25,1119.5,750.0,-558.5,287.25,3
1078.5,-422.0,-909.5,445.5,591.25,452.5,-569.0,-106.25,3
398.0,-513.75,-710.5,458.0,768.25,13.75,-404.75,-263.0,3
-1461.25,-544.75,-1065.25,410.75,1311.5,-246.25,-309.5,46.25,3
-1348.5,-589.0,-1044.5,414.25,895.75,-255.25,-420.25,193.0,3
-1304.25,-614.75,-427.0,388.0,-10.25,-199.0,-558.75,168.5,3
766.5,-591.0,981.25,404.75,290.25,-186.75,-451.25,177.75,3
975.75,-536.25,986.75,342.25,820.0,-224.25,-380.5,186.5,3
978.5,-472.0,1000.0,360.5,619.5,-294.0,-356.25,81.5,3
1217.25,-406.0,1002.75,348.25,124.5,-392.75,-191.0,70.5,3
370.5,-407.5,-1014.5,277.5,-225.25,-411.25,-113.0,27.75,3
-985.25,-436.0,-1011.5,273.25,-192.5,-291.0,-83.75,47.25,3
-1207.0,-481.75,-994.75,299.0,137.5,-229.25,46.75,69.75,3
-1457.25,-550.75,-950.0,317.5,404.0,-349.0,63.5,96.0,3
-104.5,-581.0,1064.75,314.0,987.5,-500.0,-25.25,204.25,3
215.75,-523.75,1065.75,290.25,1259.75,-620.75,-202.75,153.0,3
382.0,-356.5,1035.0,290.75,756.25,-649.0,-342.25,69.75,3
449.5,-224.25,1010.25,279.25,184.25,-667.0,-312.25,-69.75,3
359.75,-177.75,986.5,248.5,295.25,-635.75,-538.75,73.75,3
529.25,-159.0,957.0,212.5,164.25,-589.5,-702.25,375.5,3
-85.25,-169.0,955.0,149.25,-296.5,-731.5,-488.5,564.25,3
-406.25,-107.75,946.0,134.5,-326.5,-847.25,-153.75,649.75,3
-722.5,-60.75,955.0,130.25,-157.5,-772.0,94.25,727.75,3
-794.75,-67.0,684.25,152.0,216.25,-693.75,255.0,745.0,3
-665.75,-4.75,-83.5,181.75,409.75,-746.75,348.25,598.25,3
-870.25,15.75,-943.0,197.75,550.5,-547.5,278.25,543.25,3
-1096.0,-16.5,-981.25,191.5,496.0,-202.5,259.75,564.75,3
-1071.25,-84.0,-982.5,124.0,353.5,-321.5,354.25,703.5,3
-1104.25,-179.5,-989.5,19.25,634.0,-537.0,522.75,721.75,3
-1009.0,-238.0,-1008.5,-48.25,483.25,-694.0,395.0,350.25,3
-889.25,-244.5,-958.0,-19.0,-80.75,-686.5,192.5,125.5,3
1212.75,-248.5,-829.25,-81.0,-119.0,-235.0,220.25,121.5,3
1157.25,-229.75,-170.0,-117.25,-165.75,334.0,188.0,-65.25,3
1039.25,-206.0,-113.0,-110.5,-98.75,724.75,40.5,-293.75,3
933.0,-148.5,-1018.25,-133.25,80.25,851.5,-40.75,-452.5,3
854.5,-94.25,-1020.0,-151.5,-195.75,743.25,233.25,-434.0,3
0.25,-134.5,-993.75,-197.25,-587.75,669.75,534.5,55.0,3
-1177.5,-115.75,-1058.25,-266.25,-402.75,860.5,555.75,326.25,3
-1127.25,2.0,-1274.5,-351.25,143.0,982.5,427.5,-68.25,3
-1163.5,149.25,-146.75,-407.0,323.0,1019.5,240.25,-727.0,3
-1115.75,256.75,953.0,-366.0,122.75,1062.75,-14.5,-1477.25,3
-1090.0,265.5,179.0,-240.75,286.0,1076.25,-171.25,-1567.0,3
-1101.5,237.75,-421.0,-208.0,475.0,1020.25,-79.0,-1340.75,3
-1095.0,238.75,576.75,-177.25,565.25,1006.0,62.25,-704.75,3
-1098.25,201.0,1272.25,-176.0,130.75,965.25,214.0,-143.5,3
-1086.25,120.25,1214.75,-161.25,-501.25,743.25,386.5,241.75,3
-946.0,69.25,-529.0,-125.5,-839.0,584.5,421.75,502.5,3
676.75,24.25,-857.5,-84.75,-962.0,158.0,366.75,-21.5,3
971.0,3.25,-887.75,12.75,-759.5,-361.5,366.25,-1247.5,3
1030.25,41.75,-889.0,3.75,-59.5,-512.75,199.5,-1539.0,3
209.75,61.0,1050.75,-51.75,843.0,-440.25,-13.0,-1430.75,3
-910.25,11.75,974.5,-134.5,849.75,-466.25,-189.0,-663.75,3
-894.5,7.0,945.25,-130.25,723.5,-318.5,-196.0,-352.25,3
1089.25,32.75,918.0,-107.25,563.75,-613.5,16.5,-197.5,3
1079.0,31.5,897.5,-196.25,361.5,-1019.0,162.0,11.0,3
1085.75,107.25,892.0,-244.25,178.5,-1003.5,389.75,-66.75,3
1056.5,173.5,872.75,-277.0,-33.75,-740.25,207.25,148.25,3
1028.25,147.5,863.0,-242.5,-183.5,-317.25,-146.0,-66.0,3
416.75,118.25,294.0,-138.25,-166.25,-78.5,-46.75,-361.0,3
-713.75,78.75,-1126.5,-101.5,-74.75,143.5,163.75,-441.75,3
-961.5,40.75,-1127.25,-44.25,16.5,279.5,245.75,-302.25,3
-1026.75,96.75,-1094.75,4.0,-1.5,422.0,105.5,292.5,3
-1132.0,99.0,-1092.5,4.5,224.5,742.75,9.0,855.75,3
-1218.5,19.5,-99.25,27.0,225.25,1131.75,-258.5,884.75,3
-1223.5,-18.5,565.25,-4.5,37.0,1106.75,-371.5,133.75,3
702.0,-36.75,803.25,23.75,-143.25,1075.0,337.25,174.75,3
906.0,-75.5,779.5,58.0,-166.75,1067.0,1006.25,707.0,3
1005.0,-112.0,898.5,31.25,32.5,1060.75,1125.0,998.0,3
1206.0,-118.0,329.5,26.25,191.0,1014.25,1023.25,1353.0,3
1395.25,-66.75,78.75,-13.75,420.5,954.75,765.5,1235.0,3
1476.75,33.5,-571.25,-57.5,368.75,910.0,249.75,1106.5,3
-488.5,103.5,-760.5,-7.5,275.5,632.75,-173.0,1290.5,3
-528.5,166.75,-817.75,78.5,-47.0,134.5,-243.5,1224.25,3
-609.25,223.75,-878.5,82.0,-202.75,-200.5,-130.5,1051.25,3
-409.25,263.75,-948.25,4.25,-219.0,-382.75,71.5,828.0,3
-300.0,307.5,-1004.75,-91.75,-1129.0,-492.25,219.25,596.0,3
-944.25,290.75,409.0,-166.75,-1179.75,-647.75,245.5,369.75,3
-1056.0,156.0,874.0,-190.25,-1210.0,-767.75,144.25,101.25,3
-1124.75,45.75,931.5,-123.5,-1061.25,-868.0,-163.5,-194.5,3
529.0,91.5,950.0,-151.0,-1052.5,-849.25,-458.25,-320.75,3
1003.25,93.5,932.5,-226.0,-716.25,-807.25,-359.5,-453.75,3
1027.25,23.75,379.5,-148.25,-52.25,-772.75,-238.75,-517.0,3
1056.75,7.25,26.75,-83.75,-12.25,-778.0,-392.5,-356.0,3
130.0,-29.75,-67.0,-70.25,-213.25,-794.0,-544.75,-280.5,3
-523.25,-75.75,-580.25,-10.0,-437.25,-765.5,-622.75,-188.0,3
-852.75,-64.75,-932.25,2.0,-704.5,-653.25,-252.25,168.75,3
-742.25,43.0,-1056.75,-42.5,-807.0,-478.25,349.75,398.5,3
-1259.25,92.0,-1179.25,-59.5,-812.25,-284.5,566.0,235.25,3
-1393.0,29.75,-0.25,-40.25,-387.25,-51.0,483.75,92.0,3
-1253.5,-60.5,-854.75,-27.25,-192.75,126.75,425.75,-126.5,3
-497.75,-64.5,-803.0,-45.75,-286.5,174.75,387.5,-231.0,3
-72.5,-26.25,-809.0,-60.5,-114.0,236.25,656.0,-62.25,3
-144.75,-101.75,169.75,-123.75,148.75,283.5,772.5,46.25,3
-929.25,-186.0,974.5,-224.25,302.75,302.75,557.5,320.75,3
-1051.0,-241.0,940.25,-204.75,210.0,324.0,379.0,328.75,3
-1411.5,-158.75,931.75,-105.75,-3.0,316.75,201.25,16.75,3
643.0,-71.25,955.5,-16.5,81.75,396.5,165.5,-143.25,3
1014.0,-38.25,990.25,95.25,436.25,452.0,204.75,30.0,3
1269.25,11.25,-344.75,94.75,637.5,534.75,413.25,393.0,3
738.25,46.5,-1085.25,11.0,840.0,627.75,450.0,618.0,3
1348.0,56.25,-739.0,68.25,937.5,675.5,413.75,861.75,3
1695.75,13.0,-223.5,150.5,1052.25,724.5,92.0,613.75,3
110.25,-29.5,-627.25,116.75,759.0,636.0,-430.75,242.0,3
-1048.5,-84.75,-786.75,96.0,360.75,500.0,-819.5,182.25,3
-1064.75,-97.75,-1087.25,112.25,294.25,365.0,-1005.75,31.25,3
-49.25,-17.0,-1126.75,157.5,107.5,196.25,-487.5,78.0,3
-1066.75,109.25,-1109.0,132.0,50.5,192.5,140.5,134.5,3
-973.25,187.5,-965.25,86.75,42.25,296.75,299.5,31.25,3
-934.5,223.0,-260.75,57.25,28.25,265.25,157.25,-43.25,3
934.0,171.0,-373.25,4.75,-114.0,184.0,-211.25,-86.0,3
899.0,57.75,-451.5,-50.25,-142.5,168.5,-466.5,-172.25,3
867.0,20.0,-276.75,-171.5,-65.0,77.25,-258.25,-257.0,3
723.5,26.0,-278.5,-271.75,-134.75,-45.75,98.5,-333.75,3
-181.25,80.0,-177.25,-289.75,-154.0,-101.5,380.0,-542.5,3
-77.0,75.75,-104.0,-204.75,-123.0,-137.75,336.5,-777.5,3
-135.25,52.75,-83.75,-132.75,-73.0,-107.25,365.25,-643.5,3
457.75,159.25,-38.25,-46.25,-20.25,10.75,281.0,-317.75,3
338.75,161.0,-24.75,32.5,221.5,48.5,-4.75,-256.0,3
660.75,48.25,101.25,71.0,347.5,46.25,51.5,-393.5,3
-274.0,-84.25,248.0,109.5,282.75,76.0,235.0,-753.5,3
-1125.25,-140.75,251.0,67.75,519.75,-0.25,438.0,-902.5,3
-1149.25,-121.75,452.0,60.75,811.0,-95.0,519.25,-1083.75,3
-1161.25,-194.25,436.75,-1.75,693.25,-274.75,426.0,-1308.0,3
-1146.5,-205.5,321.5,-59.5,370.75,-490.0,186.25,-1017.25,3
-1098.5,-130.25,379.5,-86.5,127.75,-440.75,-37.75,-809.75,3
-599.5,-33.75,530.0,-94.5,127.0,-279.25,-146.25,-927.5,3
-405.5,140.0,365.0,-57.25,239.5,-126.25,-229.25,-1116.75,3
-157.75,258.75,314.25,-5.5,476.25,-22.75,-103.75,-1405.0,3
564.25,197.25,601.0,18.0,915.5,55.75,100.0,-1309.25,3
1040.5,102.5,243.0,-62.75,1068.5,228.5,192.75,-923.75,3
1050.5,84.0,-64.75,-136.25,930.25,178.75,196.25,-682.75,3
1005.0,-71.5,-416.25,-113.25,924.25,141.25,289.0,-504.75,3
941.25,-278.75,-581.75,-46.25,1078.0,132.0,289.5,-523.0,3
391.25,-248.25,-399.0,-34.0,1195.75,-101.5,47.5,-355.0,3
-347.5,-113.75,42.75,-50.75,1260.25,-306.5,-163.75,-303.5,3
-996.75,7.75,-60.75,-61.25,1079.0,-624.25,-365.5,-419.5,3
-1003.5,49.5,-703.25,-39.0,1007.0,-660.0,-678.5,-501.75,3
-987.5,78.25,-497.0,-15.0,1076.25,-359.5,-936.25,-530.5,3
-986.0,78.5,-543.5,-14.75,1227.25,-107.5,-980.5,-301.25,3
-885.25,15.25,-359.5,19.5,1450.5,-148.75,-892.5,-188.75,3
-266.25,51.0,-371.5,66.75,1196.0,-469.75,-549.0,-166.75,3
-61.0,116.0,-213.0,86.0,699.75,-668.5,-365.75,-314.5,3
162.0,142.75,81.75,70.5,298.25,-674.75,-263.0,-272.5,3
146.0,133.25,61.5,58.0,22.5,-411.25,-56.75,-220.25,3
134.5,162.5,59.5,122.5,-93.25,-107.75,-131.75,-193.5,3
236.0,163.0,-424.0,331.5,-346.75,61.0,-222.75,15.75,3
195.5,133.75,1.0,399.75,-610.75,212.5,-305.25,235.75,3
333.75,149.0,424.25,352.5,-720.0,424.5,-288.5,503.5,3
837.25,154.0,282.0,412.25,-257.25,380.5,-291.0,709.0,3
1047.75,94.25,259.75,317.0,328.0,4.25,-351.25,498.75,3
855.75,-97.5,25.75,11.0,874.5,-353.25,-369.0,-225.0,3
359.0,-95.25,28.5,-206.5,948.25,-317.5,-373.0,-256.0,3
70.25,-63.75,330.5,-204.0,678.75,-22.75,-408.25,-173.5,3
-11.0,-209.25,438.75,-180.0,490.25,-14.75,-470.0,-523.5,3
148.75,-246.5,271.5,-186.0,301.75,-55.25,-347.25,-972.25,3
-82.5,-237.75,110.0,-197.25,196.25,-79.5,-111.75,-1285.25,3
-376.5,-141.25,29.0,-272.0,147.5,-142.5,76.0,-565.75,3
-673.25,-12.0,88.0,-334.75,173.25,-148.0,152.25,-173.75,3
-434.75,59.5,39.25,-364.5,307.0,-102.5,302.5,-367.75,3
-278.75,85.0,17.25,-350.75,573.5,-126.25,318.0,-404.5,3
147.25,72.5,9.0,-313.0,818.75,-207.25,220.5,-396.25,3
375.75,-2.25,-118.0,-272.25,876.25,-33.5,303.5,-117.25,3
286.25,-49.0,-163.0,-199.5,688.5,287.75,364.0,-91.25,3
368.25,-35.25,-164.5,-148.5,562.0,338.25,329.25,-18.25,3
230.75,-41.25,-52.25,-82.25,418.25,14.0,236.75,304.0,3
148.0,-57.75,6.5,-7.75,-35.5,-291.25,241.25,497.75,3
-46.0,-60.25,92.5,27.75,-439.75,-372.5,341.0,570.5,3
113.75,-35.75,190.5,77.75,-762.25,-358.25,484.0,447.75,3
314.25,-76.0,206.75,72.25,-883.25,-258.5,705.0,489.0,3
309.5,-25.75,206.0,82.0,-887.75,15.75,919.25,722.75,3
242.25,6.75,207.25,65.75,-1095.25,208.25,1044.75,861.5,3
109.25,-66.75,195.0,38.25,-1476.5,314.75,1048.75,1100.75,3
85.75,-84.0,159.75,33.25,-1865.5,526.75,1056.5,917.25,3
43.75,-60.0,197.75,27.0,-1999.5,710.25,1067.5,704.75,3
23.0,23.75,205.0,64.0,-1967.25,723.25,1094.0,641.75,3
-89.5,103.0,152.75,65.25,-2151.0,591.0,1073.25,324.0,3
-132.25,57.25,48.75,56.75,-2417.0,508.75,827.25,709.25,3
-165.5,-35.0,-32.5,60.0,-2223.75,520.5,686.25,1247.0,3
-189.25,-41.5,-90.25,30.25,-1561.5,483.75,641.5,1470.5,3
-168.5,-95.5,-71.75,69.5,-1007.5,277.0,737.75,1324.5,3
-239.75,-139.75,-24.25,125.25,-870.75,321.75,799.0,1154.5,3
-229.75,-57.25,-79.5,77.0,-1111.75,318.5,693.0,1367.5,3
-237.5,22.25,-86.25,74.25,-1420.5,34.0,604.25,1114.75,3
-268.5,-9.0,-104.5,124.5,-1733.0,-15.25,508.75,1014.75,3
-212.25,45.5,-108.25,153.25,-2119.25,-104.0,397.75,1203.0,3
-140.5,110.25,-72.0,110.5,-2227.75,59.25,310.75,1490.25,3
-105.0,121.0,-81.75,30.0,-1794.0,387.0,182.5,1563.25,3
-73.25,185.5,-88.0,-67.5,-951.25,300.0,-86.5,1483.0,3
-10.25,264.25,-73.0,-166.75,-517.0,182.25,-431.25,1299.0,3
26.0,450.5,-96.25,-160.25,-438.75,0.75,-654.0,1329.0,3
-50.0,741.0,-144.75,-97.5,-499.75,-221.5,-757.0,1074.25,3
-114.25,828.25,-176.0,-58.25,-673.25,-123.25,-757.0,1322.5,3
-78.25,536.5,-218.75,-85.5,-886.25,-128.0,-495.5,1433.75,3
-74.25,173.5,-204.5,-128.0,-1148.5,-117.5,-287.0,1239.5,3
-91.75,-158.75,-120.25,-141.75,-1595.25,-46.0,-369.25,1040.25,3
-106.25,-355.0,-46.5,-150.5,-1940.25,-118.0,-560.5,1058.0,3
-119.0,-583.5,-27.5,-193.75,-1538.75,-238.5,-942.25,1244.25,3
-147.5,-901.25,-49.75,-113.25,-667.0,-574.75,-979.25,1058.75,3
-166.25,-1027.5,-23.75,33.0,23.25,-594.5,-956.5,417.75,3
-243.5,-1146.25,62.75,99.75,486.75,-382.25,-984.0,249.25,3
-345.5,-1156.25,119.5,93.0,620.5,-303.5,-967.0,205.25,3
-486.75,-939.5,105.25,74.5,466.75,56.0,-936.0,-298.5,3
-463.5,-771.5,63.0,163.0,298.25,520.5,-782.5,-366.25,3
-261.0,-559.5,9.5,100.75,120.5,952.75,-826.25,-411.75,3
-253.25,89.25,-13.0,0.0,-39.25,1180.5,-972.0,-486.75,3
-253.25,536.75,-80.25,13.25,-138.0,1041.0,-929.0,-497.25,3
-314.5,552.75,-161.75,-20.75,-43.5,717.0,-921.25,-469.25,3
-312.25,-14.75,-109.75,17.25,297.75,480.75,-985.0,-476.0,3
-334.0,-469.75,-8.25,171.0,825.5,535.5,-1033.75,-382.5,3
-343.0,-593.0,73.5,196.0,1081.25,651.75,-1001.75,-44.25,3
-148.5,-1039.0,126.0,-120.5,856.5,508.5,-954.75,343.25,3
275.75,-666.5,98.0,-361.75,56.5,-235.0,-974.75,239.25,3
934.25,33.0,9.5,-510.25,-506.25,-1190.25,-980.25,190.5,3
841.75,345.75,-112.25,-420.0,-156.25,-1431.25,-967.0,312.75,3
171.5,222.5,-270.75,-288.75,-222.25,-1529.25,-999.0,297.75,3
163.75,650.0,-221.25,-325.0,-263.5,-1327.0,-970.0,345.0,3
97.25,585.75,-40.5,-137.5,175.0,-571.0,-935.5,352.0,3
-6.75,679.75,-24.5,-63.75,260.0,-442.5,-965.0,95.75,3
-43.75,879.75,39.25,179.25,670.25,-321.5,-938.5,22.25,3
-231.0,570.0,54.0,391.5,838.5,-99.0,-968.5,-63.5,3
-223.0,84.0,26.0,647.5,874.0,69.75,-998.5,-128.0,3
-223.0,-448.5,41.5,860.0,974.25,424.5,-961.25,-168.75,3
-339.0,-610.75,23.0,876.75,1093.75,480.25,-963.0,-271.0,3
-447.0,-754.75,21.75,1122.75,1308.0,252.25,-964.25,-305.75,3
-417.5,-676.75,53.0,1169.0,1396.0,-378.75,-922.5,-304.25,3
-347.5,-561.0,74.75,1040.75,1461.5,-529.25,-871.25,-285.25,3
-348.0,-263.25,38.0,710.5,1443.5,-43.25,-906.5,-527.5,3
-346.75,-203.5,-139.5,457.75,1424.75,154.75,-809.75,-880.5,3
-462.25,-278.75,-529.5,327.75,1261.25,577.75,-411.5,-904.5,3
-660.75,-162.5,-662.5,173.25,1080.75,612.5,-53.75,-1016.0,3
-656.75,-95.0,-376.5,111.5,856.75,339.5,-52.5,-1192.5,3
-444.5,88.75,-351.75,215.0,547.0,544.25,-111.25,-1135.5,3
-175.25,140.75,-244.0,393.25,547.75,338.75,-7.75,-1012.5,3
234.0,287.25,-158.25,171.0,487.0,66.25,-126.75,-927.75,3
420.75,355.75,-217.25,-128.5,-153.75,-7.25,-34.0,-774.25,3
406.5,354.25,-90.25,-364.5,-614.75,-108.0,-11.5,-776.0,3
482.5,367.25,-85.0,-604.0,-366.75,-123.75,119.0,-462.5,3
515.75,401.25,-3.25,-750.75,-199.75,-226.25,293.75,-445.25,3
541.25,433.25,52.75,-927.0,-129.5,-489.75,341.25,-821.0,3
602.25,464.5,107.25,-958.5,71.0,-733.0,398.25,-1024.0,3
600.25,544.75,107.75,-937.5,122.0,-894.75,455.25,-1029.5,3
543.0,565.25,56.0,-953.5,217.25,-1293.25,503.25,-946.75,3
555.25,743.0,37.75,-988.25,297.0,-1367.0,482.75,-1207.5,3
519.25,1105.25,22.75,-742.5,424.25,-803.25,651.0,-1872.25,3
524.25,1245.75,68.25,-512.25,649.75,-444.5,837.25,-1988.25,3
574.0,798.5,91.5,-1229.75,650.5,-161.75,939.25,-1880.75,3
561.75,470.75,152.25,-1510.75,552.75,-53.25,922.75,-1655.25,3
524.5,209.25,170.25,-1353.0,496.25,-83.5,885.5,-1207.25,3
504.25,-52.0,195.75,-873.25,514.25,33.25,810.5,-862.75,3
513.75,-29.75,172.5,-221.0,534.75,-72.75,766.0,-626.5,3
405.75,-138.75,43.0,103.0,600.25,-130.75,850.0,-540.5,3
280.0,-177.0,76.5,-19.75,706.0,19.5,852.0,-567.5,3
256.75,-194.25,235.0,186.0,736.25,-25.75,855.25,-186.25,3
230.0,-204.25,299.75,598.75,785.5,-252.0,863.25,341.25,3
215.75,-181.5,292.5,660.75,823.5,-6.5,881.5,553.75,3
246.25,119.75,340.25,663.75,790.25,103.75,884.75,428.0,3
220.5,418.5,286.75,659.25,772.0,91.5,893.0,451.0,3
158.5,482.75,147.75,61.5,803.5,232.0,923.75,606.5,3
102.5,513.75,78.75,-361.5,852.25,316.0,973.5,681.25,3
40.0,364.5,-25.25,-492.75,651.5,485.5,965.0,573.75,3
-20.75,357.25,-77.5,-352.25,513.75,458.25,950.25,464.75,3
-43.0,428.5,-22.0,359.5,870.75,392.0,975.75,437.25,3
-50.75,545.25,35.75,-297.25,1114.75,210.25,989.25,132.5,3
-66.0,1009.25,-44.0,-952.5,1281.25,5.5,1007.0,173.75,3
-30.0,1076.75,-145.75,-941.0,1455.5,-111.5,1023.0,878.5,3
-12.5,1086.5,-195.0,-387.0,1520.25,-333.25,1044.25,1186.25,3
-3.5,1086.25,-239.5,479.5,1491.5,-232.0,1050.5,1061.75,3
12.5,537.5,-185.25,985.75,1404.5,189.0,1055.25,1193.25,3
-10.25,-733.0,-156.25,950.75,1322.75,415.0,1067.25,1376.5,3
-2.0,-1058.0,-70.25,1014.25,1351.75,618.5,1089.75,1607.0,3
-27.0,-1084.25,76.5,634.0,1508.75,751.75,1097.25,1760.0,3
-71.0,-1055.0,188.75,659.0,1407.75,701.75,1091.5,1752.5,3
-108.0,-1061.25,261.25,632.75,1079.25,809.75,1115.5,1623.75,3
-111.75,-1077.25,251.0,-261.5,739.0,1054.75,1120.75,1386.75,3
-8.5,-1030.75,197.25,-933.75,254.75,1273.0,1074.75,1104.5,3
90.75,-638.5,153.0,-953.75,-181.75,1377.75,1028.25,758.75,3
132.0,-634.5,174.75,-945.0,-24.5,1339.25,1083.25,400.25,3
49.5,-531.0,127.5,-937.75,515.25,1271.5,1157.25,-25.75,3
-147.0,-751.75,134.0,-930.25,334.5,1254.25,1216.25,-623.5,3
-250.25,-852.25,158.5,-905.0,-254.0,1186.25,1209.75,-977.25,3
-269.0,-929.0,115.5,-371.25,-378.5,1004.5,1115.75,-1018.25,3
-277.0,-1004.5,51.5,32.75,88.0,882.0,987.5,-898.25,3
-153.5,-523.0,-19.5,95.75,215.5,785.25,664.25,-790.0,3
250.5,278.75,173.0,-38.5,-421.5,294.5,328.75,-1045.5,3
407.0,1134.75,290.5,229.25,-895.0,250.5,302.75,-1139.25,3
415.0,1466.25,-97.5,372.5,-1346.5,457.0,206.75,-914.5,3
477.25,1384.25,-226.0,261.5,-1553.0,322.5,116.25,-930.0,3
398.75,1303.25,-267.0,653.5,-1377.75,426.0,177.25,-624.75,3
304.0,1276.5,-295.25,651.5,-1449.5,512.5,133.25,219.75,3
283.0,1339.5,-133.25,702.5,-1392.75,591.75,213.5,651.25,3
203.5,1336.25,-151.25,796.25,-1363.0,685.25,129.75,977.75,3
228.0,1268.0,-34.5,893.75,-1174.25,613.25,58.75,702.5,3
188.5,1262.75,26.75,664.0,-988.5,702.5,21.5,70.25,3
205.75,1109.0,52.75,630.25,-804.0,631.0,-81.0,-25.5,3
85.75,812.0,-68.0,580.5,-859.5,461.25,-166.5,79.0,3
-27.5,519.25,-181.75,450.75,-1217.5,251.0,-291.5,-150.0,3
-153.0,164.5,-198.25,345.5,-1016.75,82.0,-387.5,-340.25,3
-287.0,-154.5,-190.25,464.5,-671.25,-300.5,-544.25,-390.5,3
-342.75,-462.0,-70.25,715.75,-662.75,-648.5,-622.75,-500.5,3
-392.0,-397.75,-35.75,639.25,-558.25,-508.75,-709.0,-555.25,3
-386.25,-77.5,51.25,458.25,-513.5,-417.75,-758.5,-460.0,3
-475.0,-327.5,133.0,345.75,-530.0,-545.25,-794.5,-23.75,3
-539.0,-629.0,157.5,426.5,-685.25,-519.5,-820.5,386.5,3
-612.0,-730.75,91.5,370.25,-857.5,-392.75,-774.0,554.25,3
-615.0,-700.25,42.75,82.0,-832.5,-264.75,-676.0,436.0,3
-588.0,-524.0,-41.75,-65.75,-767.0,-191.25,-591.25,181.75,3
-565.0,-498.25,-210.75,-58.75,-670.75,-90.25,-591.75,50.25,3
-493.5,-483.5,-285.25,-62.0,-578.0,-128.5,-685.75,-179.75,3
-412.5,-415.5,-226.0,-122.0,-478.75,-269.75,-805.0,-482.0,3
-370.0,-393.0,-99.75,-39.75,-338.25,-317.25,-844.5,-694.75,3
-414.5,-383.0,-92.0,102.0,-289.75,-437.75,-790.0,-579.5,3
-405.75,-283.75,-72.75,110.0,-163.75,-534.0,-584.75,-121.75,3
-385.0,-218.0,-46.0,125.0,-75.5,-717.0,-486.25,169.75,3
-430.25,-268.75,-63.75,200.75,438.0,-783.0,-528.75,261.5,3
-400.0,-326.5,-32.5,333.75,1839.25,-639.25,-707.25,387.0,3
-264.5,-335.5,-2.75,303.25,1738.25,-486.0,-721.75,484.75,3
-196.75,-314.0,44.25,298.5,1558.25,-449.25,-621.25,458.75,3
-96.75,-317.5,94.5,343.5,1170.5,-533.0,-660.0,384.25,3
-53.0,-340.0,153.5,304.5,531.25,-655.5,-668.25,423.25,3
-30.25,-388.5,174.25,316.25,173.0,-891.5,-743.25,361.5,3
-9.5,-401.25,26.5,267.5,144.25,-1275.25,-819.0,146.75,3
-32.25,-317.25,-155.75,199.5,100.5,-1247.75,-838.5,138.5,3
-52.5,-241.75,-233.0,82.75,171.75,-822.5,-784.0,276.25,3
-148.0,-257.75,-207.0,-18.5,306.25,-690.0,-795.75,446.75,3
-205.5,-238.25,-101.75,-110.25,469.75,-600.0,-808.5,634.0,3
-189.0,-179.75,24.25,-134.25,1087.75,-468.25,-718.75,841.75,3
-98.0,-192.25,128.0,-93.5,1509.25,-349.0,-552.75,902.25,3
-36.75,-208.0,96.25,-65.75,1756.5,-195.5,-384.0,592.25,3
-62.0,-247.0,24.0,-66.75,1708.25,-188.25,-327.75,391.75,3
-26.0,-241.0,49.25,-98.5,1432.25,-285.75,-269.25,437.0,3
35.25,-219.25,6.75,-98.25,395.0,-312.5,-288.5,370.25,3
70.75,-218.25,1.75,-123.25,-1181.75,-114.0,-420.75,280.75,3
46.5,-134.0,75.25,-93.5,-1513.75,-97.0,-473.25,213.75,3
-11.25,-116.0,116.0,-87.5,-1627.25,-121.5,-426.5,77.5,3
37.75,-112.25,149.25,-102.75,-1704.75,-92.5,-353.25,24.5,3
49.25,-12.0,142.5,-82.5,-1917.75,-10.75,-239.75,200.5,3
31.25,67.0,89.5,-88.5,-2005.25,171.25,-189.75,330.5,3
36.75,106.25,31.5,-72.25,-2018.0,224.0,-137.5,183.25,3
-13.5,119.0,19.25,-66.0,-1973.5,236.75,78.0,120.0,3
-25.25,120.75,7.25,-108.0,-1553.25,228.0,330.5,67.75,3
-16.0,115.25,-60.75,-130.0,-1166.75,220.75,441.0,-22.75,3
-116.25,78.75,-116.0,-136.0,-993.5,169.75,379.5,-50.0,3
-216.0,41.25,-161.5,-158.75,-1189.25,142.25,199.25,-222.0,3
-208.0,-40.5,-164.75,-148.75,-1604.0,153.0,-13.0,-294.75,3
-94.75,-34.0,-157.25,-132.0,-1961.5,140.75,-138.75,-296.5,3
37.0,3.75,-166.25,-129.75,-2045.0,136.75,-157.75,-266.0,3
85.25,-16.75,-151.0,-135.75,-2009.25,116.0,-202.75,-173.5,3
49.0,-22.0,-108.5,-148.75,-1867.0,131.25,-331.75,-67.0,3
-52.5,-12.0,-39.75,-179.0,-1696.0,103.75,-472.25,12.25,3
-120.5,25.75,0.0,-203.25,-1437.25,69.5,-529.5,74.75,3
-154.25,63.25,-36.5,-228.25,-875.25,103.75,-529.75,216.0,3
13.75,75.5,-104.5,-264.5,-291.5,68.0,-553.0,243.25,3
235.0,57.75,-114.25,-273.25,-255.5,-81.5,-518.5,129.75,3
444.25,55.0,-21.75,-242.25,-431.25,-262.5,-479.5,-0.5,3
572.0,73.5,60.75,-213.5,-487.75,-513.75,-329.25,-122.25,3
458.5,54.25,90.25,-153.75,-229.75,-747.5,-14.5,-192.25,3
361.5,33.5,90.75,-110.25,232.25,-1077.5,222.75,-257.5,3
250.25,36.5,21.5,-93.75,905.25,-1146.75,329.0,-397.75,3
166.0,44.75,-41.5,-79.25,1429.5,-1069.75,326.75,-539.75,3
-0.75,56.25,-131.5,-75.5,1448.0,-960.25,292.0,-626.25,3
-226.5,74.75,-135.0,-61.25,1362.5,-853.25,345.5,-637.75,3
-481.0,99.5,-66.25,-69.5,828.75,-740.25,453.0,-689.0,3
-498.25,92.25,-54.75,-77.75,413.5,-653.25,500.25,-756.25,3
125.0,68.5,-41.5,-79.5,-11.0,-689.25,458.75,-691.5,3
570.25,30.25,-76.75,-81.25,-342.5,-855.0,379.5,-558.0,3
655.5,25.5,-127.75,-78.0,51.0,-807.0,282.0,-464.75,3
533.5,23.5,-247.25,-78.75,641.75,-855.25,56.25,-388.0,3
290.5,-2.0,-328.25,-78.5,1009.0,-1165.75,-116.75,-344.25,3
175.25,26.75,-311.5,-74.0,1476.5,-1196.5,-212.5,-374.0,3
116.0,47.25,-270.5,-66.5,1697.5,-818.5,-340.25,-348.75,3
150.5,61.0,-97.25,-56.25,1920.0,-650.25,-407.25,-379.0,3
159.5,113.5,105.25,-59.75,1772.5,-503.5,-441.0,-427.25,3
141.5,154.0,219.25,-70.5,1175.5,-417.0,-434.5,-435.75,3
8.25,180.75,240.5,-60.0,639.75,-225.5,-433.75,-478.75,3
-13.5,224.75,161.5,-39.75,323.75,99.75,-374.75,-478.0,3
109.5,251.0,58.25,-10.5,152.75,309.0,-285.75,-488.5,3
199.25,255.0,-7.75,29.75,161.0,615.0,-194.0,-465.0,3
250.0,251.25,27.75,71.75,199.0,821.0,-41.25,-425.0,3
268.5,187.5,20.5,147.25,90.5,1032.5,136.75,-429.5,3
292.5,114.75,-76.75,236.0,-251.5,1106.0,310.0,-521.0,3
192.25,66.75,-51.25,281.75,-69.75,1132.75,432.0,-605.0,3
-116.25,-56.0,-61.5,378.5,543.0,1191.75,479.25,-593.25,3
-771.0,-339.25,-111.0,561.0,1004.75,1237.5,445.75,-536.5,3
-1070.75,-676.25,-35.25,573.5,1488.0,1380.75,417.75,-542.5,3
-858.75,-688.0,1.75,515.5,1704.75,1481.5,329.0,-600.75,3
-647.75,-646.0,56.5,452.0,1570.0,1495.0,122.25,-717.0,3
-591.5,-624.25,112.5,409.75,1021.75,1452.75,-63.5,-741.75,3
-536.75,-546.25,175.5,368.0,593.5,1364.5,-178.75,-609.0,3
-556.75,-410.0,224.25,322.0,529.75,1277.0,-219.5,-484.0,3
-497.0,-287.5,211.0,212.25,310.25,1146.75,-212.0,-354.75,3
-439.0,-188.25,240.25,147.25,-117.25,1032.0,-267.0,-45.0,3
-355.25,-127.25,262.25,82.75,-246.0,877.0,-372.25,150.5,3
-351.5,-36.0,325.5,-11.25,-184.5,718.0,-338.25,90.5,3
-286.0,69.0,377.25,-69.5,-71.25,550.0,-97.25,93.75,3
-195.5,162.5,391.25,-122.5,262.5,397.0,-1.25,151.25,3
-238.5,213.75,356.25,-178.75,230.25,458.5,-236.25,284.0,3
-177.0,238.5,256.0,-189.25,89.0,621.0,-448.25,509.5,3
-102.5,273.75,106.75,-246.5,129.0,691.75,-482.0,691.25,3
29.5,257.75,54.25,-303.5,-469.25,863.5,-369.25,875.75,3
83.75,178.5,21.0,-292.5,-1070.0,1073.75,-352.25,792.75,3
62.0,138.75,-161.75,-380.5,-1327.25,895.25,-505.75,647.5,3
26.25,199.25,-276.75,-443.5,-1427.0,663.0,-550.5,542.5,3
173.75,233.5,-242.25,-454.0,-1016.0,577.25,-304.25,545.5,3
323.75,255.0,-158.5,-436.5,-275.25,109.5,83.75,650.25,3
338.75,289.5,-68.0,-441.0,-397.5,-317.0,273.75,637.75,3
482.0,310.0,31.5,-487.0,-697.75,-391.5,277.0,620.75,3
467.75,329.0,130.5,-409.25,-936.75,-36.5,216.75,547.25,3
319.5,338.5,202.75,-359.75,-882.75,-112.75,-37.25,488.25,3
161.75,380.75,133.0,-365.75,-492.5,-338.0,-462.0,395.75,3
23.25,356.75,14.0,-324.75,-171.25,-313.25,-922.25,323.75,3
15.75,304.5,38.0,-284.0,-237.75,-641.5,-962.25,354.25,3
-30.0,256.25,-22.75,-260.5,-535.5,-736.5,-946.25,438.0,3
-310.75,216.0,-147.5,-304.75,-578.75,-913.75,-961.5,486.75,3
-319.25,157.5,-271.0,-233.5,-556.5,-947.75,-1008.0,476.0,3
96.75,16.75,-361.75,-88.0,-800.75,-878.25,-1068.25,505.5,3
450.0,51.0,-246.5,-182.75,-1098.25,-921.25,-1019.0,564.5,3
620.25,107.0,-145.25,-158.0,-823.75,-857.5,-878.75,563.5,3
356.5,63.25,-35.25,-63.5,-479.0,-1072.75,-782.25,562.75,3
190.75,75.75,81.25,-162.75,-728.75,-1135.0,-804.75,548.75,3
118.75,-2.75,106.75,-118.0,-1343.5,-1012.25,-770.0,502.5,3
-59.75,-54.0,115.0,-82.25,-1866.5,-945.25,-560.25,475.5,3
-17.25,-28.0,68.5,-130.0,-1916.75,-892.0,-113.5,447.0,3
-27.0,-32.0,67.0,-104.0,-1560.0,-710.25,461.5,426.25,3
-88.75,-7.5,47.25,-69.25,-1162.25,-518.75,871.0,356.25,3
-240.5,6.25,40.0,-44.0,-1203.25,-374.5,900.75,312.25,3
-232.75,-16.5,53.5,-18.75,-1407.25,-148.0,778.5,299.5,3
-217.25,-42.25,42.0,64.75,-1585.75,-4.0,540.5,329.25,3
-214.0,-33.25,40.75,77.5,-1924.75,111.0,360.25,390.5,3
-153.75,4.75,51.5,80.0,-1888.0,223.75,401.75,342.0,3
-390.75,-7.75,75.0,107.5,-1663.0,272.5,620.75,237.25,3
-486.0,-40.0,4.0,121.75,-1653.5,389.5,822.25,138.0,3
-245.5,-33.5,-80.25,80.0,-1651.75,455.5,872.75,50.75,3
-40.0,-12.0,-112.25,114.25,-1269.75,471.75,864.25,-37.0,3
150.25,-6.25,-164.25,187.75,-1059.75,599.5,822.5,15.75,3
338.75,16.75,-214.75,112.0,-1077.75,866.5,748.25,57.25,3
468.0,8.25,-179.0,90.25,-1130.25,1031.75,700.25,-15.75,3
520.0,17.75,-141.5,63.5,-901.75,1028.25,661.0,6.75,3
422.75,49.0,-147.25,64.25,-620.75,901.75,722.5,125.75,3
332.25,84.75,-139.25,10.0,-544.5,480.5,739.25,178.25,3
274.25,116.0,-170.25,-55.25,-385.0,27.0,631.25,181.0,3
213.25,137.75,-153.0,-38.0,-51.0,-440.25,561.75,223.25,3
47.75,190.5,-89.75,-22.75,429.0,-572.25,570.5,289.0,3
-363.75,151.25,-57.25,-0.75,875.25,-202.25,764.0,336.0,3
-354.25,101.25,-46.25,-47.0,1284.5,135.75,929.5,266.5,3
216.0,51.75,-112.25,-28.75,1874.25,351.75,1031.25,263.0,3
536.5,-10.0,-236.25,-59.0,2034.25,409.0,1172.5,367.25,3
660.5,-60.5,-158.5,-78.5,2166.75,400.0,1221.5,441.75,3
655.25,-78.75,-51.75,-124.0,2033.75,400.0,1109.75,466.25,3
571.5,-36.75,-95.25,-216.5,1892.25,422.0,710.75,432.75,3
481.25,-58.75,-47.0,-155.75,1969.0,458.75,387.5,258.5,3
212.75,-119.75,2.75,-11.75,2027.75,438.25,328.0,60.0,3
31.25,-110.25,43.25,-32.75,1804.25,399.0,317.75,32.0,3
5.5,-11.5,49.5,-150.75,1498.25,218.75,242.75,-142.25,3
-54.5,-13.5,80.5,-118.75,1365.5,59.25,263.25,-262.25,3
-152.25,-14.0,205.5,-134.0,1088.0,-9.75,210.0,-249.75,3
-131.5,32.0,255.25,-148.75,795.25,-74.25,149.75,-345.0,3
0.75,77.75,194.5,-146.75,604.25,59.75,-50.75,-330.75,3
76.0,120.5,42.0,-68.5,718.5,229.5,-344.0,-233.75,3
88.25,113.0,-84.25,-27.0,771.0,233.75,-445.5,-168.25,3
147.25,89.5,-189.0,-119.75,775.0,299.75,-472.5,-224.25,3
164.25,52.5,-346.0,-122.0,1047.0,325.75,-338.5,-208.0,3
104.5,27.0,-502.5,-136.5,1267.25,344.25,-593.25,-80.75,3
42.25,-32.75,-451.25,-171.75,1144.0,349.25,-953.25,-82.75,3
-80.5,-127.75,-341.5,-159.25,905.25,285.75,-972.25,-29.0,3
-197.0,-153.5,-250.25,-64.5,856.25,345.0,-846.75,-28.25,3
-192.0,-111.75,40.5,-36.25,742.5,342.75,-385.0,-43.5,3
19.75,-28.5,204.0,-194.0,608.25,247.5,-134.5,-70.25,3
144.5,-23.75,326.25,-74.25,866.0,183.5,-393.75,-194.0,3
115.0,-28.5,373.75,39.0,1147.75,167.5,-833.0,-237.0,3
122.5,-46.25,198.75,77.0,1315.5,125.25,-974.0,-318.75,3
162.25,-74.0,127.25,68.25,885.75,81.0,-843.5,-257.0,3
316.75,15.0,15.75,-71.0,496.25,104.25,-578.75,-115.5,3
361.0,59.0,-150.75,-13.5,478.25,79.75,-512.25,-110.0,3
315.0,74.25,-310.75,1.25,349.75,93.75,-569.75,-105.75,3
338.0,121.25,-441.75,-138.75,-226.5,89.5,-692.0,-203.0,3
266.0,114.75,-355.0,-195.0,-249.25,116.25,-764.0,-316.5,3
-74.75,30.75,-225.5,-13.75,98.25,305.5,-391.0,-221.5,3
-413.25,-24.0,-135.25,53.0,88.75,274.0,139.75,-15.25,3
-188.25,122.75,45.25,-284.25,-577.0,0.0,425.0,193.0,3
317.25,339.75,261.25,-456.25,-928.0,-215.75,193.0,338.75,3
441.25,333.25,500.5,-369.25,-888.5,-412.5,-144.75,472.5,3
385.75,284.25,557.5,-274.0,-820.0,-521.0,-367.25,526.25,3
445.25,417.0,528.5,-315.75,-800.75,-339.25,-704.0,504.25,3
370.75,733.25,432.75,-309.5,-705.0,-112.0,-887.25,524.75,3
327.5,700.0,325.25,-288.5,-560.0,-111.5,-577.5,348.5,3
245.5,512.75,305.0,-291.75,-466.75,-43.75,-175.25,150.25,3
85.5,289.25,183.5,-183.75,-400.5,13.5,54.25,30.75,3
-126.75,-115.25,125.25,-110.5,-574.5,-243.0,156.5,-158.75,3
-250.75,-285.0,90.5,-72.25,-718.5,-567.5,-11.25,-340.25,3
-383.25,-394.25,81.5,22.75,-719.25,-511.0,-214.5,-498.25,3
-488.5,-442.0,100.5,78.75,-588.0,-382.5,-358.75,-625.5,3
-842.5,-468.0,114.75,186.5,-292.25,-251.0,-135.25,-623.5,3
-1510.25,-465.5,144.5,264.25,-347.25,50.0,-34.25,-614.5,3
-1373.5,-427.25,138.5,346.25,-566.5,37.5,-134.5,-513.0,3
-641.5,-437.0,187.75,413.0,-980.0,-28.75,-33.5,-426.0,3
-396.75,-333.75,209.25,512.25,-1357.0,-80.5,87.75,-395.25,3
-222.5,-290.0,190.5,560.5,-1650.5,-213.0,568.0,-276.25,3
-328.75,-203.5,157.25,571.25,-1578.25,-255.0,1032.0,-328.25,3
-629.75,-150.25,105.75,562.25,-1308.5,-272.25,1042.75,-335.25,3
-887.5,-137.0,53.75,503.25,-1048.25,-188.75,317.5,-375.5,3
-805.75,-173.5,64.75,462.0,-839.0,-21.5,-545.75,-471.25,3
-419.5,-168.75,136.5,417.75,-890.75,-8.25,-1008.5,-466.0,3
-237.5,-128.0,175.5,431.0,-1006.0,-34.0,-1368.25,-440.0,3
-17.0,-159.5,84.5,440.5,-1336.75,6.0,-1277.75,-455.5,3
-159.25,-149.25,-68.5,454.75,-1645.0,127.75,-983.0,-506.5,3
-369.25,-190.25,-74.0,461.5,-1815.75,222.25,-644.0,-303.5,3
-451.25,-410.75,5.25,519.5,-1595.0,474.75,-433.75,-42.25,3
-707.75,-621.5,88.75,677.0,-1494.25,853.25,-19.0,-350.75,3
-634.0,-624.25,-25.0,661.25,-1379.5,963.5,370.75,-299.0,3
-277.25,-563.25,-222.5,611.0,-1154.75,907.0,234.5,19.75,3
72.5,-524.25,-207.75,535.25,-1026.25,655.25,233.0,13.25,3
190.5,-353.5,-313.25,374.25,-998.5,462.5,27.75,296.5,3
316.5,-248.0,-436.5,250.25,-927.5,770.75,-308.0,704.0,3
311.5,-119.5,-423.0,197.25,-827.25,563.25,-282.0,735.75,3
170.75,-155.25,-318.25,116.25,-674.0,411.75,-334.5,493.75,3
55.5,-94.5,-190.25,48.5,-550.5,274.5,-554.75,180.25,3
228.5,-20.25,-205.5,-41.25,-376.25,195.75,-600.0,180.5,3
270.25,-42.5,-98.25,-74.25,-433.0,135.75,-568.5,-33.75,3
458.0,1.75,25.5,-131.25,-448.0,-172.5,-696.75,-132.75,3
432.0,137.0,46.0,-187.75,-478.5,36.0,-672.0,-513.0,3
192.0,251.5,32.5,-219.25,-381.25,390.0,-463.25,-577.75,3
90.75,233.5,-26.25,-215.75,-131.25,-18.5,-318.5,-563.0,3
89.0,251.0,-114.75,-216.25,-18.75,-426.75,-545.0,-286.5,3
108.25,239.25,-201.5,-263.5,15.25,-87.25,-627.75,-88.25,3
179.75,260.5,-267.0,-328.0,42.5,117.25,-365.5,149.75,3
329.75,194.5,-239.5,-371.75,-21.75,312.0,-172.5,397.25,3
231.25,99.0,-101.0,-331.25,11.75,398.25,-125.75,411.0,3
204.0,90.5,-10.25,-284.25,97.75,349.25,-316.5,309.25,3
185.25,160.5,30.75,-271.75,293.25,346.25,-243.0,125.25,3
142.75,236.75,18.5,-265.0,662.0,96.75,-77.5,54.25,3
133.5,237.75,-30.25,-259.0,847.75,0.75,116.75,31.5,3
117.0,251.5,-99.5,-237.5,1021.0,-219.5,378.0,141.25,3
11.75,154.0,-130.75,-240.5,1116.75,-109.25,387.5,223.0,3
-123.75,22.5,-150.0,-236.5,1302.25,39.75,272.5,223.0,3
-80.75,-48.0,-207.75,-228.5,1519.75,-259.0,172.0,260.5,3
2.25,-13.5,-246.25,-203.75,1624.5,-509.75,208.0,325.75,3
99.0,48.25,-277.5,-138.75,1674.5,-923.0,209.0,349.5,3
179.5,59.5,-242.0,-109.25,1600.25,-1040.25,211.25,278.25,3
204.0,86.75,-146.75,-96.75,1539.75,-914.25,258.5,210.5,3
162.25,111.25,-50.0,-91.0,1555.0,-691.25,220.25,211.5,3
131.25,124.5,47.0,-129.75,1599.0,-455.5,56.25,256.25,3
88.5,130.75,120.75,-150.25,1614.5,-418.75,-253.25,190.75,3
51.25,149.5,177.5,-154.5,1415.75,-456.5,-449.75,86.25,3
31.5,117.0,188.75,-174.0,1152.0,-605.75,-388.5,-11.25,3
3.5,88.75,130.5,-150.0,979.75,-642.75,-209.0,-61.25,3
14.75,106.0,52.25,-132.25,883.25,-664.0,33.0,-80.25,3
16.5,100.0,-16.0,-134.25,825.5,-641.25,193.0,-111.5,3
4.25,137.25,-136.25,-159.25,745.0,-581.25,114.0,-75.25,3
-3.5,137.75,-228.25,-156.0,725.25,-443.75,-110.25,-177.75,3
3.5,109.75,-187.75,-139.5,743.25,-298.75,-321.75,-68.0,3
3.5,101.5,-164.75,-137.75,580.5,-290.0,-518.75,151.5,3
-96.75,39.75,-84.75,-114.25,407.0,-251.25,-551.0,-45.5,3
-538.75,6.5,48.75,-80.0,190.0,-190.75,-234.75,-359.25,3
-737.5,-0.25,113.5,-36.5,111.75,-80.5,162.5,-573.0,3
-303.0,-48.25,159.75,-21.0,285.5,22.0,471.25,-552.5,3
47.25,-73.0,145.25,-27.0,629.5,113.75,545.5,-461.75,3
469.0,-11.0,102.25,-49.0,556.25,162.0,343.25,-520.5,3
801.75,29.5,41.0,-33.75,386.75,160.0,44.75,-492.25,3
733.75,24.75,41.5,-17.5,171.5,99.25,-133.25,-273.25,3
522.0,38.75,61.5,-33.5,-22.0,27.25,-62.25,-193.0,3
179.75,52.5,25.5,-29.75,-101.75,-158.0,159.25,-123.0,3
51.25,51.0,-45.75,-26.75,-219.0,-442.75,380.25,89.75,3
-5.0,28.25,-188.25,6.0,-89.25,-414.0,550.75,118.5,3
-40.75,-21.0,-147.25,22.75,65.25,-154.5,522.75,366.0,3
-34.0,-29.75,6.5,38.0,158.75,-11.25,378.75,494.5,3
-103.0,15.5,48.75,69.25,63.75,107.5,315.0,434.0,3
-126.5,8.75,68.5,65.0,-126.25,161.25,329.25,368.5,3
-224.5,-45.0,36.25,74.25,-346.5,97.75,413.75,125.75,3
-256.75,-32.0,4.0,102.75,-608.25,105.25,493.75,-38.25,3
-143.75,36.0,-58.75,84.75,-767.0,127.5,555.5,-277.5,3
-124.5,4.25,-196.5,33.5,-882.5,167.5,514.0,-352.5,3
-161.0,-72.25,-275.75,29.0,-934.75,158.0,492.75,-284.0,3
-165.5,-95.5,-229.0,42.25,-895.5,260.0,717.0,-241.5,3
-137.0,-77.25,-189.0,37.75,-824.5,349.75,841.5,-237.0,3
-69.0,-16.25,-196.0,42.75,-917.0,300.25,551.25,-243.75,3
-72.25,-25.5,-93.0,43.0,-1099.75,199.5,282.25,-41.5,3
-54.25,-8.25,67.25,20.5,-1198.75,-154.5,-32.75,243.75,3
-19.75,19.5,181.75,-18.75,-1214.5,-296.0,-437.5,473.5,3
-56.75,20.75,225.5,-42.5,-1211.25,-79.5,-187.75,617.0,3
-57.0,20.25,289.75,-39.25,-1143.5,-153.0,877.0,636.25,3
-62.5,-31.75,367.25,-1.25,-1096.75,-182.5,776.75,533.0,3
-71.0,-23.5,448.25,29.5,-1107.25,85.5,-753.5,445.75,3
-56.0,-17.75,492.75,40.25,-1088.25,104.0,-1028.25,287.75,3
-49.75,-6.25,455.5,24.0,-1133.25,58.25,-587.75,78.75,3
-20.25,-3.0,401.0,-10.0,-1101.25,70.75,-574.25,35.25,3
-7.5,-33.75,232.25,-28.0,-896.5,37.75,-707.0,74.0,3
-36.0,-37.75,81.0,-30.25,-691.75,124.75,-449.25,-106.25,3
-45.5,-17.75,-27.5,8.0,-494.75,162.25,-180.0,-343.0,3
-28.0,51.5,-119.0,11.0,-484.75,110.0,281.0,-182.25,3
-32.0,6.5,-239.5,-6.75,-578.5,-24.0,99.0,-157.5,3
-33.0,-34.5,-331.25,-2.25,-754.0,-86.0,138.25,-264.5,3
-26.75,-25.25,-401.25,23.0,-869.0,-153.5,215.0,-33.0,3
-42.25,4.0,-453.75,9.25,-805.5,-440.0,192.75,113.0,3
-47.5,-38.0,-352.5,-29.25,-739.0,-525.5,150.25,293.25,3
-63.0,-177.5,-247.75,-12.25,-741.0,-514.25,-107.0,466.5,3
-51.25,-187.5,-75.0,-2.0,-732.5,-594.5,-307.5,540.25,3
-21.75,-119.25,102.25,15.5,-641.5,-476.5,-566.5,601.25,3
1.0,-18.5,220.5,12.25,-541.75,-54.0,-440.5,580.0,3
19.75,67.5,280.0,-8.5,-455.25,329.0,-155.25,576.75,3
23.25,119.0,295.75,-2.25,-421.5,366.25,343.5,523.0,3
14.5,104.25,193.0,19.25,-378.75,349.0,421.5,457.0,3
-30.5,22.0,143.0,36.75,-330.5,194.5,147.75,427.0,3
-82.75,-49.5,104.0,35.25,-237.0,-129.25,698.5,401.75,3
-108.0,-60.5,-197.25,29.75,-84.25,-309.5,895.75,316.5,3
-83.25,-42.0,-501.0,17.25,148.25,-145.0,380.0,130.25,3
-51.0,-32.75,-348.25,10.75,464.0,-37.0,550.0,-72.0,3
-26.5,-29.5,161.75,-2.0,777.5,182.0,1106.25,-158.75,3
11.75,-148.5,357.25,13.75,994.75,551.0,966.25,-220.0,3
38.25,-114.5,424.5,25.0,1052.0,463.25,888.5,-295.25,3
52.75,-8.75,291.5,24.75,1054.5,359.25,-101.75,-186.0,3
58.25,-15.75,53.75,18.5,1008.25,414.0,-551.25,-42.0,3
42.5,20.75,-24.5,9.5,877.0,890.5,-963.75,35.25,3
29.25,54.0,-161.75,46.75,680.0,1124.75,-996.0,38.25,3
0.25,57.75,-152.0,29.5,504.5,1142.0,-814.0,-62.0,3
-49.25,62.5,-119.5,10.5,444.5,1253.25,-564.5,-89.75,3
-60.5,57.25,-120.75,35.75,554.75,1188.25,-67.75,-77.25,3
-28.75,62.0,-168.25,-28.25,818.75,1286.0,-435.5,-37.5,3
-10.0,70.0,-168.75,-92.5,931.25,1259.75,-667.75,-42.5,3
-20.0,59.5,-128.25,-92.75,968.5,1281.0,-46.5,-66.75,3
-32.0,67.75,-104.25,-64.5,900.0,1224.5,674.75,-51.0,3
-18.0,70.75,-53.5,-45.5,697.5,967.25,560.75,-90.0,3
-0.75,72.25,-12.5,-53.0,575.0,668.5,177.0,-70.25,3
8.5,60.75,16.75,-83.25,396.0,597.25,146.0,-31.25,3
21.0,42.5,38.75,-103.5,196.0,448.0,-99.5,-0.5,3
35.75,53.25,61.5,-62.75,-16.5,51.5,-186.25,-20.75,3
31.5,41.0,45.25,-23.5,-67.75,-496.75,-420.25,-55.0,3
17.5,15.25,5.5,-31.5,-31.75,-827.0,-360.0,-43.0,3
1.25,-1.25,-59.5,-59.5,-140.0,-835.0,-131.5,6.0,3
-40.25,-4.25,-359.5,-77.5,-188.5,-1111.5,-90.5,91.0,3
-117.25,-10.25,-821.25,-57.25,-104.75,-1267.25,-102.5,168.5,3
-168.0,-8.75,-685.0,-43.5,98.0,-1081.25,-172.5,195.75,3
-122.25,-0.75,-150.5,-86.5,226.25,-976.0,-114.0,226.0,3
-49.5,3.5,371.5,-93.25,213.5,-997.25,-74.5,282.5,3
-5.0,9.25,876.25,-66.0,36.0,-1038.0,21.25,257.0,3
-145.75,-15.5,754.25,-33.75,-259.75,-1070.25,28.0,216.0,3
-396.5,-42.0,448.25,26.5,-380.5,-736.75,77.75,160.5,3
-243.25,-76.5,327.5,13.25,-370.25,-345.25,90.5,64.5,3
116.25,-52.5,274.25,2.0,-332.25,-47.0,82.5,10.75,3
401.25,-10.25,179.0,-22.0,-288.5,45.5,66.75,-58.75,3
610.25,-19.0,111.0,-52.75,-339.25,63.75,26.5,-162.75,3
608.75,-18.25,53.75,-44.5,-402.0,100.75,-3.0,-227.25,3
501.75,-12.0,-73.5,-26.75,-458.25,16.75,-34.25,-325.25,3
223.75,34.5,-204.0,8.0,-452.5,-25.0,-16.5,-484.5,3
8.25,80.25,-276.75,35.0,-392.75,63.75,-11.75,-501.0,3
-122.0,68.5,-277.25,42.75,-559.25,162.5,25.5,-437.25,3
-232.5,61.75,-267.0,20.0,-775.75,247.25,-0.75,-451.75,3
-458.75,59.0,-146.0,-3.75,-891.5,182.75,5.5,-510.5,3
-714.75,3.0,-131.5,-27.5,-1058.25,85.0,3.25,-570.0,3
-597.25,-48.75,-134.25,-10.0,-1073.0,131.25,-15.0,-520.5,3
-446.25,-52.5,-118.5,17.75,-887.5,250.25,9.75,-493.5,3
-130.75,-67.5,-60.25,8.5,-649.0,347.5,20.0,-620.0,3
216.0,-47.5,-17.5,15.0,-536.25,282.75,9.25,-704.0,3
298.0,5.75,-25.25,7.75,-581.75,320.75,-0.5,-674.25,3
385.25,22.0,-13.75,18.5,-690.0,424.75,2.0,-592.25,3
345.5,-9.25,-24.75,16.5,-1023.0,405.5,9.0,-537.75,3
268.75,-57.0,-6.25,0.25,-1423.25,300.25,-1.25,-483.75,3
236.0,-80.5,-12.75,10.5,-1388.0,90.25,-85.5,-399.5,3
211.5,-94.25,5.75,0.5,-1174.25,-134.75,-70.5,-248.0,3
220.5,-91.5,-40.0,-0.5,-700.0,-256.75,40.75,-36.5,3
176.5,-91.5,-50.75,-20.0,-266.75,-144.25,76.25,61.0,3
65.75,-78.75,-22.0,-34.5,232.5,7.75,92.5,29.25,3
-52.75,-72.25,-16.25,-39.25,228.5,14.25,109.75,75.0,3
-254.0,-73.25,9.0,-44.25,-213.5,-94.75,137.25,110.5,3
-302.0,-37.25,-6.5,-36.25,-629.25,-62.0,160.75,96.0,3
-220.75,-1.5,2.25,-24.5,-788.75,-52.75,154.0,145.5,3
-254.0,15.5,27.25,20.75,-796.5,-99.5,186.25,152.25,3
-334.75,12.0,45.5,39.0,-634.0,-80.25,179.0,225.0,3
-452.5,-3.75,28.5,18.0,-44.75,-100.75,187.0,496.0,3
-441.75,9.25,20.0,4.25,348.25,-84.25,221.0,808.5,3
-266.5,51.0,34.5,2.5,263.75,-102.75,214.75,975.25,3
-78.5,60.25,38.75,22.5,25.75,-110.25,217.5,947.0,3
82.75,59.5,28.75,-5.5,-348.0,-95.75,203.75,845.25,3
242.0,63.5,-4.75,-21.0,-537.0,-123.5,195.25,768.25,3
326.25,26.75,-23.5,-10.0,-174.75,-113.75,197.75,692.25,3
265.5,-15.5,-15.5,-33.5,269.5,-116.0,213.0,618.75,3
148.75,-27.25,-12.0,-11.25,396.5,-142.75,235.5,535.25,3
57.0,-19.75,-15.5,-21.0,394.75,-140.75,257.25,457.25,3
-106.75,-3.5,-18.25,-34.0,581.75,-154.25,286.5,362.25,3
-116.25,18.25,-8.75,-41.0,657.25,-150.75,282.0,161.0,3
123.5,22.75,-10.5,-56.5,265.0,-146.75,279.25,59.5,3
282.5,33.5,-15.5,-58.5,-214.5,-139.5,263.0,-32.75,3
305.5,31.25,-30.0,-65.75,-540.5,-107.25,219.75,-182.25,3
181.5,45.75,-25.25,-69.5,-814.0,-86.0,209.25,-266.0,3
-129.0,73.75,5.75,-70.25,-1009.0,-72.25,228.0,-373.25,3
-347.5,59.25,25.0,-68.0,-1161.25,-57.5,246.75,-491.75,3
-491.25,26.25,39.75,-48.0,-1286.25,-22.0,250.5,-541.25,3
-566.0,-2.5,37.75,-20.75,-1077.75,28.5,217.25,-528.5,3
-242.75,16.5,55.5,-33.5,-211.5,107.25,178.0,-660.0,3
153.0,29.0,70.75,-53.25,710.25,95.25,97.5,-835.5,3
301.25,-24.25,30.75,-60.0,1072.25,8.75,38.5,-854.75,3
248.5,-72.25,-18.0,-41.5,1080.5,-40.0,-37.75,-781.75,3
147.75,-19.75,-23.75,-29.0,682.75,-64.5,-97.5,-666.5,3
84.0,18.5,-26.75,-30.0,-54.5,-41.0,-105.25,-584.5,3
-85.5,-11.75,-63.25,5.25,-695.25,-8.5,-98.25,-485.5,3
53.25,-15.75,-45.0,3.75,-928.75,-1.25,-54.5,-219.75,3
289.75,-30.5,-20.25,2.25,-1098.0,8.0,-42.5,124.75,3
386.25,-30.5,-49.0,11.75,-961.5,55.25,-48.25,392.0,3
396.5,-22.25,-115.75,17.25,-767.75,109.25,-93.75,640.75,3
239.5,-50.25,-182.75,11.5,-713.0,134.25,-142.5,906.0,3
13.25,-29.5,-215.25,5.75,-504.5,117.0,-115.5,970.75,3
-229.75,-12.25,-272.0,13.5,-299.0,101.25,-132.25,954.25,3
-308.75,8.5,-249.75,15.75,-63.25,134.25,-169.5,749.5,3
-371.25,33.75,-243.0,0.5,214.5,149.25,-169.0,457.5,3
-570.75,12.0,-218.0,-24.0,416.0,140.5,-169.0,475.75,3
-891.75,5.25,-193.75,-33.0,553.25,169.25,-123.75,548.75,3
-971.75,4.0,-304.75,-35.5,557.25,198.75,-59.5,679.25,3
-849.25,6.25,-163.5,-35.25,818.5,149.0,28.75,817.25,3
-469.25,8.75,87.5,-15.25,1167.25,62.0,158.25,883.75,3
212.25,4.25,516.5,6.75,1158.0,-25.5,246.25,1074.0,3
602.5,9.0,807.75,-5.75,852.5,-44.25,337.25,1087.25,3
899.25,15.5,772.25,-4.75,542.0,17.75,418.0,846.5,3
968.5,23.75,746.5,14.25,179.75,17.75,413.25,515.25,3
622.0,27.25,521.5,20.75,-187.25,8.5,377.5,270.5,3
361.0,15.0,355.25,16.5,-187.25,-5.75,324.0,147.25,3
292.75,24.75,200.75,21.25,203.0,-31.0,298.75,58.75,3
331.25,46.25,21.25,5.0,702.5,-9.25,244.75,15.5,3
500.5,47.5,-48.0,-62.75,963.5,-6.75,211.5,-50.25,3
438.25,23.75,-78.25,-95.75,941.5,-23.5,257.5,-147.5,3
201.0,-9.5,-174.75,-8.25,811.75,-76.5,296.0,-204.25,3
58.25,-3.5,-226.75,62.0,600.75,-97.75,305.75,-241.0,3
-137.5,26.5,-203.75,59.25,439.75,-80.0,284.25,-865.25,3
-350.75,1.25,-198.0,49.75,453.25,-106.0,343.25,-1014.5,3
-730.5,-21.75,-136.25,38.0,615.0,-147.5,392.5,-541.0,3
-872.5,1.0,-136.0,23.5,893.5,-160.0,406.75,-271.75,3
-562.75,31.0,-153.0,-36.25,806.25,-191.5,347.5,723.5,3
-400.25,39.75,-198.0,-48.75,321.5,-267.75,268.75,727.75,3
-335.0,28.25,-229.5,-49.5,131.5,-263.5,289.5,712.0,3
-225.75,0.25,-184.25,-48.25,163.25,-255.5,241.5,713.25,3
-174.75,-13.75,-133.5,-37.0,233.5,-226.0,179.0,676.5,3
-126.0,-4.0,-184.5,-46.25,234.75,-167.25,154.25,616.25,3
-118.25,0.0,-219.75,-49.25,317.75,-160.25,124.75,197.5,3
-77.0,-4.25,-171.75,-54.0,299.75,-126.25,100.0,-84.75,3
137.0,-10.25,-359.75,-42.75,257.75,-122.25,37.5,-98.25,3
267.5,-10.5,-566.5,-45.0,292.75,-207.75,13.5,152.75,3
341.25,-11.25,-632.0,-40.75,455.0,-186.5,85.75,440.25,3
387.75,-13.75,-610.5,-40.25,686.0,-99.5,161.5,419.5,3
296.5,-21.75,-207.5,-29.0,1048.75,-109.75,250.25,190.75,3
191.25,-42.25,164.75,-13.5,1271.25,-34.25,287.0,144.25,3
118.25,-28.25,356.0,-10.75,1158.75,-69.75,258.0,-65.25,3
156.75,-11.25,481.75,-5.0,832.25,-145.25,177.25,-383.75,3
75.0,-10.25,393.5,-5.75,337.25,-133.25,34.5,-421.0,3
21.0,-11.25,281.75,-7.5,58.5,-105.25,-44.75,-480.25,3
-19.25,-4.5,36.5,8.75,218.5,3.25,-164.25,-311.25,3
-200.25,22.5,-248.0,9.75,248.5,14.25,-304.5,-112.5,3
-582.5,28.5,-350.5,18.0,329.5,-25.25,-369.75,-45.25,3
-991.0,18.0,-235.0,44.0,491.5,-33.5,-404.25,170.75,3
-974.25,14.5,-66.0,30.0,185.5,43.5,-410.5,267.5,3
-967.75,8.25,146.5,15.75,95.75,151.75,-376.0,382.0,3
-501.5,-14.75,84.75,9.0,477.75,90.0,-318.25,631.75,3
578.0,-35.75,-94.5,11.75,602.0,-12.75,-319.5,952.25,3
1042.5,-23.75,-237.0,-192.75,95.25,-45.75,-346.5,1364.0,3
1301.0,34.0,-540.75,-730.0,-646.0,-224.25,-455.75,1467.5,3
1692.0,140.5,-389.0,-675.75,-904.75,-375.75,-515.5,773.75,3
1479.75,117.25,163.0,-326.25,-729.0,103.5,-482.5,54.5,3
99.75,72.25,858.75,-437.25,-696.5,27.0,-493.0,355.0,3
-426.75,336.5,1497.25,-556.25,-508.0,-270.0,-549.25,136.5,3
-480.0,574.25,1226.5,-507.5,-153.25,17.75,-666.25,-25.5,3
-605.5,659.0,669.75,-456.25,-92.0,-63.5,-709.75,102.25,3
494.0,625.0,-327.75,-447.25,-386.0,21.0,-755.0,-50.0,3
1327.5,608.5,-868.0,-391.25,-752.5,97.0,-738.75,-20.5,3
1373.25,628.75,-859.25,-373.75,-1498.25,20.25,-609.25,-320.5,3
1359.25,614.25,-980.75,-262.25,-1715.0,106.0,-504.75,-951.75,3
817.0,587.5,-637.75,-100.75,-1678.75,-34.75,-498.5,-1463.0,3
273.25,520.75,-222.75,21.5,-1397.5,130.5,-518.0,-1763.25,3
40.25,444.25,-136.75,130.75,-721.0,117.25,-501.75,-1832.0,3
133.25,331.25,-974.0,187.0,-394.0,250.75,-513.5,-1875.0,3
-269.25,117.25,-1235.75,270.0,-294.0,311.75,-513.0,-1845.5,3
-443.25,-65.5,-597.5,303.75,-374.25,375.0,-405.75,-1848.75,3
-575.75,-222.5,-292.75,366.5,-672.75,493.75,-154.75,-1795.75,3
-1105.0,-263.75,535.25,387.5,-1159.0,496.5,1.0,-1754.5,3
-1464.0,-293.75,952.75,401.5,-1238.0,570.75,-22.75,-1715.75,3
-1367.25,-324.25,883.25,394.5,-994.75,569.25,-68.75,-1634.0,3
-548.5,-382.5,746.5,378.25,-378.0,564.75,-90.5,-1570.0,3
-350.5,-433.25,1000.5,395.25,180.75,484.5,-89.75,-1422.25,3
-583.25,-462.0,947.75,419.75,257.0,473.25,-167.75,-1260.5,3
-1186.0,-478.25,-11.25,421.75,159.25,424.25,-291.75,-1092.75,3
-736.0,-487.5,-506.0,400.25,71.5,380.0,-364.25,-963.5,3
23.0,-498.75,-704.25,387.5,-53.75,365.75,-367.75,-841.25,3
124.25,-415.0,-924.5,367.25,-192.0,330.25,-287.25,-699.0,3
413.75,-384.5,102.25,390.5,-388.25,309.0,-276.25,-571.5,3
496.25,-385.5,786.0,363.0,-416.25,252.75,-317.25,-429.75,3
179.25,-388.5,724.0,315.75,-252.75,173.5,-460.75,-309.75,3
-905.75,-418.25,763.25,293.0,-22.5,119.5,-684.25,-224.25,3
-1257.75,-409.0,833.5,282.0,400.5,98.0,-657.25,-175.25,3
-1222.5,-374.75,943.75,261.25,905.0,81.5,-650.25,-136.0,3
-907.25,-318.25,1011.25,264.5,1159.25,77.25,-673.5,-145.5,3
335.25,-231.75,1025.5,232.25,1083.75,40.0,-763.25,-119.25,3
835.25,-190.75,772.0,183.0,935.0,43.0,-887.25,-94.0,3
824.25,-175.25,20.0,190.75,634.5,23.5,-1082.25,-150.25,3
828.5,-134.75,-787.5,191.25,252.5,10.75,-1150.5,-127.0,3
782.5,-90.25,-1075.75,192.25,-72.0,39.25,-684.0,-77.25,3
124.5,-61.75,-1168.0,164.5,-127.0,14.25,-305.75,-67.5,3
-352.75,30.25,-1242.0,135.25,-288.75,-5.0,-56.75,-38.75,3
-579.0,110.25,-1263.25,129.25,-601.0,-22.75,152.5,4.5,3
-999.25,94.75,769.0,89.5,-595.0,-32.5,203.0,27.75,3
-952.0,58.75,834.5,51.0,-868.25,-14.0,258.25,-7.75,3
-911.25,26.75,907.25,9.0,-1464.0,9.25,255.5,-4.25,3
-918.25,-25.25,966.5,-41.0,-1897.75,57.5,223.25,54.5,3
-944.5,-126.5,1014.5,-94.0,-2078.0,104.5,221.75,104.25,3
-1028.0,-294.25,993.25,-157.25,-1960.75,191.0,222.5,159.0,3
-341.75,-340.5,527.25,-165.0,-1463.75,215.0,275.25,215.0,3
935.25,-239.5,-84.75,-145.75,-1054.75,153.0,404.0,272.5,3
1030.0,-159.5,-417.75,-123.75,-928.5,106.75,449.5,282.5,3
1031.5,-144.5,-1070.0,-134.5,-746.25,34.75,461.0,293.0,3
1028.0,-145.25,-1047.75,-152.25,-429.25,63.75,484.25,290.0,3
1011.0,-114.0,-1051.5,-97.25,-164.5,47.25,445.25,278.75,3
977.5,-63.5,-1023.5,-100.5,362.0,14.25,440.25,252.0,3
436.0,-20.5,-1025.5,-143.5,881.5,40.25,538.0,198.0,3
436.25,34.5,-623.75,-163.0,743.25,38.5,642.25,150.75,3
366.75,99.25,1024.5,-183.5,734.5,64.75,437.75,118.25,3
-291.0,108.0,1098.25,-184.75,906.75,-12.25,44.0,70.5,3
-183.25,117.75,1128.25,-219.5,985.5,-45.25,-510.0,11.75,3
-442.0,117.75,1154.0,-243.25,1039.25,-72.5,-1120.75,25.5,3
-800.75,117.75,1124.25,-269.0,1073.0,-75.5,-1047.0,59.25,3
-923.0,140.0,445.0,-246.5,1164.0,-19.5,-956.75,114.0,3
-910.75,150.25,-1090.0,-173.0,1210.25,-8.25,-936.5,177.75,3
-893.0,152.0,-1095.75,-138.0,1197.25,-13.0,-936.25,227.0,3
-881.25,122.25,-1250.75,-107.75,1067.75,-38.5,-1031.0,299.25,3
988.5,99.25,-1290.25,-102.75,922.25,-8.75,-1123.75,390.75,3
1140.5,123.25,-1247.75,-83.5,894.5,-35.25,-1089.25,483.25,3
1176.25,190.5,-1251.25,-17.0,962.25,-47.75,-993.25,569.75,3
629.5,171.25,-1206.0,21.0,1198.0,-29.25,-953.5,637.75,3
-798.75,91.0,-1054.25,4.5,1284.25,-47.25,-959.5,724.0,3
-849.5,96.25,-908.5,-31.5,1374.5,-45.0,-836.75,856.0,3
-929.25,101.75,-847.0,-54.75,1548.25,-64.25,-627.75,976.5,3
763.25,9.5,1079.75,-102.5,1428.75,-83.25,-514.25,1073.25,3
976.5,-119.5,979.0,-144.5,1250.0,-61.25,-364.5,1115.25,3
923.75,-221.5,1076.0,-179.75,1179.5,-44.25,-196.25,1167.25,3
906.75,-133.25,1001.5,-212.0,1103.5,-28.0,-66.75,1196.75,3
964.25,-20.5,1012.75,-226.25,938.25,-23.0,5.5,1184.0,3
326.25,-27.0,1073.25,-222.0,566.75,-46.0,9.75,1235.0,3
-863.75,49.0,1064.25,-234.25,366.0,-40.75,-75.75,1285.75,3
-731.75,57.25,1176.5,-242.25,329.0,-43.75,-108.25,1270.0,3
-681.0,46.25,934.75,-188.5,558.5,-40.75,384.75,1204.5,3
-687.25,29.25,-155.0,-136.0,939.25,-16.75,596.5,1172.75,3
-717.75,-31.25,-733.25,-105.25,1109.25,8.5,276.5,1170.0,3
-79.5,-83.0,-895.75,-27.75,1054.5,-13.75,24.75,1179.5,3
1199.0,-205.5,339.75,42.5,666.0,-32.25,131.25,1203.25,3
1122.75,-227.5,1015.5,68.5,624.5,-12.75,288.5,1067.0,3
1101.25,-107.5,966.5,66.0,-253.5,-23.75,408.25,999.75,3
1125.0,-4.0,943.75,-12.5,-1231.75,-25.5,502.75,1041.75,3
1158.25,135.25,-148.75,-117.5,-1315.5,-24.25,683.25,901.0,3
1149.5,225.75,-743.5,-163.75,-1257.75,-19.5,1181.75,670.5,3
425.5,226.0,-1071.5,-196.0,-1412.0,-5.25,1495.0,413.0,3
142.25,227.75,-1025.25,-179.5,-1638.0,41.5,1531.75,222.5,3
-49.75,182.75,-579.0,-105.5,-1516.5,68.75,1436.0,97.25,3
-519.75,127.0,-570.0,-22.0,-1163.25,58.0,1265.25,-16.0,3
-1056.75,104.0,-762.25,54.75,-1126.75,65.5,989.0,16.25,3
-1019.25,222.75,-1089.25,60.25,-1123.75,80.5,829.0,62.75,3
-945.5,351.5,-1187.5,54.0,-1295.5,86.5,1037.75,-18.25,3
-706.25,333.25,-1238.0,102.25,-1575.0,78.5,1112.25,-203.5,3
-251.75,266.5,-1211.25,155.0,-1793.0,69.25,1018.25,-395.75,3
-812.25,244.0,-1193.25,196.25,-2168.5,54.75,893.25,-666.0,3
-750.25,243.0,-1216.0,381.25,-2140.0,39.0,995.25,-823.0,3
-802.0,95.5,-1184.75,538.0,-1833.5,49.75,1283.0,-830.25,3
15.5,36.5,828.5,431.0,-2019.75,21.0,1406.75,-804.5,3
1142.25,78.5,831.75,343.0,-2020.5,10.75,1048.0,-632.75,3
1029.25,-14.25,827.75,179.5,-1561.75,43.75,679.5,-512.0,3
848.5,-137.5,877.5,2.25,-1016.5,23.75,779.0,-526.75,3
670.0,-159.0,970.75,-69.5,-660.25,32.5,778.25,-594.25,3
611.25,-76.25,1000.0,-133.75,-758.5,55.0,847.0,-790.5,3
-624.25,-78.75,951.5,-95.75,-496.5,106.25,798.75,-1005.25,3
-1803.5,-107.5,342.5,-16.5,74.75,156.0,446.0,-1157.25,3
-1986.25,-272.5,-424.75,248.75,201.0,212.75,401.0,-1302.5,3
-1952.25,-609.25,-242.5,525.25,329.5,279.25,484.5,-1346.0,3
-1834.5,-572.0,-548.25,500.75,101.75,285.0,596.25,-1220.0,3
-1676.25,-414.5,-678.75,472.5,63.5,230.5,762.75,-957.5,3
445.0,-500.5,-575.75,434.25,128.5,130.75,786.0,-710.0,3
611.5,-555.5,-652.0,319.75,103.5,26.0,477.0,-550.25,3
873.0,-579.25,-795.5,249.5,446.75,-34.0,159.5,-416.0,3
1110.75,-567.25,-865.0,208.0,739.25,-69.25,247.0,-437.25,3
1225.0,-414.0,-342.75,86.0,531.0,-124.75,459.25,-493.75,3
1330.25,-186.0,-183.0,-65.0,25.5,-170.5,392.25,-508.5,3
605.5,184.75,237.5,-297.0,-199.25,-216.5,276.75,-524.25,3
-111.0,415.25,47.5,-369.25,-845.0,-191.25,296.0,-586.5,3
-588.5,469.25,215.5,-269.25,-615.25,-130.25,143.5,-705.5,3
-807.5,505.0,404.75,-198.5,290.0,-144.75,-190.0,-760.0,3
-299.25,471.25,-53.5,93.0,720.75,-115.75,-692.0,-818.5,3
-652.25,406.75,-931.0,519.75,479.75,-82.25,-674.75,-926.5,3
-1132.5,64.25,-970.25,546.0,329.75,-109.0,-351.0,-1048.5,3
-1206.25,-262.75,-664.75,144.5,139.0,-110.0,-321.5,-1175.75,3
-1133.75,-116.0,611.25,-319.25,67.0,-128.25,222.0,-1287.5,3
-969.0,15.75,988.5,-829.25,247.75,-128.25,395.5,-1394.75,3
-390.75,36.0,1013.75,-1303.5,1356.0,-125.0,-85.75,-1461.75,3
454.5,79.25,1011.25,-1407.5,1559.5,-138.0,-198.25,-1475.5,3
1164.25,118.25,-219.25,-1589.25,-110.0,-159.75,79.5,-1410.75,3
1449.75,225.0,-618.25,-1629.5,-234.5,-143.75,975.75,-1348.25,3
508.5,276.75,-314.0,-1231.0,59.25,-115.75,1784.0,-1354.25,3
138.5,520.5,-1013.75,-890.5,406.75,-91.75,1229.25,-1347.75,3
793.5,740.75,-978.5,-627.0,708.0,-25.25,-89.5,-1217.75,3
599.0,777.5,-1009.75,-554.25,595.0,1.25,-583.25,-959.75,3
-287.5,661.25,-1010.0,-605.0,304.0,32.75,-423.5,-665.0,3
-422.25,483.0,576.5,-341.75,440.75,55.0,-504.25,-447.75,3
77.5,317.75,885.75,610.25,378.75,4.75,-622.75,-111.0,3
1217.75,264.75,904.0,574.0,-86.0,-52.0,-1094.0,175.5,3
1414.0,278.5,957.0,616.0,-388.5,-65.25,-1144.75,317.25,3
1081.25,399.5,1018.75,671.75,-502.25,-79.0,-687.0,558.75,3
724.5,833.0,1025.75,223.75,-430.0,-63.75,467.0,618.25,3
1048.75,954.25,178.5,-1198.5,-290.25,-51.0,891.25,671.5,3
464.25,879.75,-420.5,-1213.25,-336.25,-31.25,845.0,709.0,3
-785.25,462.0,-277.25,-1097.0,-204.5,1.5,964.25,738.5,3
-1279.0,-302.25,-179.25,-1015.75,-366.0,-18.0,931.0,779.75,3
-1682.5,-876.25,-548.75,-872.0,-288.5,-41.0,164.5,777.0,3
-1116.25,-873.75,-1042.5,223.5,-469.5,-78.0,-269.0,896.25,3
-1627.25,-525.0,-960.75,890.5,-726.0,-95.75,101.5,927.75,3
-1410.75,-478.5,-638.5,808.5,-354.0,-129.25,645.0,933.5,3
407.5,-273.5,-353.5,487.25,286.5,-116.25,827.5,944.25,3
499.5,-184.75,-442.75,70.5,618.75,-58.5,345.25,964.0,3
503.75,-184.5,-865.75,-309.0,214.25,-11.25,-440.5,972.0,3
503.5,-154.25,-791.0,-159.75,-422.25,-7.5,-527.25,924.0,3
541.75,-237.25,51.0,290.25,-1125.75,23.5,-168.25,895.5,3
671.0,-136.75,-432.5,711.0,-1599.25,131.75,-33.0,827.75,3
-523.25,25.0,-1020.5,796.75,-1571.75,209.75,201.25,776.5,3
-1157.0,98.25,-242.0,556.5,-1603.0,232.5,833.0,748.5,3
-1080.5,62.0,695.75,458.5,-918.25,220.5,713.25,716.5,3
-185.75,32.25,2.25,578.25,-334.25,239.0,232.75,679.5,3
-11.5,-121.5,-997.25,618.25,90.0,223.25,194.75,633.25,3
-37.25,-337.0,-490.75,492.5,155.25,196.75,360.25,647.25,3
-573.25,-645.75,1001.0,567.75,-106.0,160.5,-616.25,684.0,3
-1229.0,-717.0,1077.75,693.5,-106.5,82.5,-1226.5,768.5,3
-1393.5,-414.25,1080.25,492.75,-447.0,57.5,-1249.75,909.25,3
-1300.5,-221.5,1049.25,72.75,-602.0,8.5,-1276.25,1003.75,3
-1193.75,-161.0,664.0,-207.5,-802.25,-24.5,-432.5,1081.5,3
-1251.5,-130.25,270.5,-264.75,-533.75,-24.25,-164.25,1192.5,3
-1307.0,-66.5,-246.5,6.25,-16.75,-40.25,-775.5,1306.25,3
-1004.0,-2.0,20.5,320.0,83.75,-52.0,-914.25,1312.0,3
-812.25,63.25,-7.5,278.0,96.5,-27.75,24.25,1362.75,3
-688.0,6.75,-409.75,305.0,87.5,8.25,928.75,1327.0,3
-344.5,-99.75,-755.0,448.75,195.75,-19.5,1140.25,1125.5,3
-30.5,-42.25,-727.5,518.75,251.25,-39.5,1413.0,969.25,3
188.0,118.0,-539.0,370.5,477.5,-26.0,1580.75,855.75,3
399.75,109.75,-514.0,175.0,730.25,-21.0,1434.75,664.25,3
450.0,86.0,-303.5,221.0,910.0,-15.25,603.0,435.0,3
469.25,82.5,-226.25,271.5,940.5,-14.75,-201.5,284.25,3
331.0,-180.25,-24.25,438.5,860.25,9.0,-290.0,227.75,3
219.5,-274.75,134.25,625.75,664.75,63.5,241.75,367.75,3
212.75,-101.75,487.25,452.25,435.75,63.75,781.75,692.5,3
222.0,47.25,612.0,100.0,358.0,-20.5,1270.25,1085.5,3
158.25,68.25,176.25,-372.25,370.0,-134.75,1269.5,1309.0,3
98.0,95.75,-128.75,-819.0,565.75,-194.0,1354.75,1344.5,3
44.75,58.75,-331.75,-827.25,739.25,-197.25,941.0,1372.25,3
-87.75,-210.25,-356.25,-335.25,999.5,-181.5,394.0,1374.5,3
-249.0,-365.5,-330.0,229.0,1175.5,-80.5,688.0,1399.75,3
-296.5,-286.25,-252.5,564.75,1057.5,62.5,948.25,1433.0,3
-160.75,-1.75,-174.75,713.25,766.5,219.25,257.75,1368.75,3
-35.25,270.75,-231.75,762.5,468.0,380.5,-887.0,1001.25,3
45.25,347.0,-280.75,572.0,570.0,352.25,-1127.5,761.5,3
112.0,314.75,-320.75,157.5,494.25,236.5,-1169.0,659.5,3
116.0,225.25,-230.25,-174.0,568.25,168.5,-1770.0,419.0,3
45.25,-9.0,-153.0,-515.5,852.75,28.0,-1506.75,275.25,3
-146.0,-370.5,-25.75,-767.5,858.0,-173.25,-457.0,163.25,3
-269.0,-470.25,87.5,-675.75,964.5,-438.25,-489.75,-445.5,3
-153.0,-311.0,117.75,-302.5,1056.25,-535.5,-1150.0,-466.75,3
-26.75,-77.0,150.25,-121.75,1100.5,-541.25,-1557.0,-50.5,3
14.5,70.0,130.0,-84.25,960.75,-599.25,-1754.5,71.0,3
23.5,35.5,148.0,-79.0,650.75,-476.25,-957.0,176.75,3
-2.25,37.5,110.0,-187.5,340.75,-383.75,24.25,-392.25,3
22.5,50.5,89.75,-184.75,6.25,-274.0,722.25,-757.0,3
-5.25,49.5,100.5,-287.75,-46.75,-67.75,574.25,-440.75,3
-100.0,10.0,99.25,-235.5,-57.5,120.75,211.0,-146.25,3
-128.25,5.5,104.75,-182.75,-131.0,225.75,381.5,111.75,3
-207.5,90.25,79.25,-156.75,-205.25,279.0,465.25,189.25,3
-311.5,158.25,84.5,-119.75,-267.25,371.0,411.25,351.0,3
-302.75,225.75,70.75,-146.5,-385.75,297.5,108.0,676.75,3
-157.75,227.0,70.5,-84.5,-544.5,227.25,33.75,545.75,3
11.0,252.5,88.25,-20.0,-609.0,214.25,-168.75,-125.25,3
124.0,256.25,43.0,54.25,-623.75,162.25,-55.75,-1103.25,3
209.0,172.75,-45.5,87.0,-651.75,175.0,-39.75,-1337.5,3
256.75,132.0,-89.75,240.75,-684.75,163.25,140.5,-1469.0,3
319.0,63.75,-84.25,394.25,-609.75,66.5,309.5,-1428.5,3
367.25,-17.25,-59.75,491.0,-446.75,-65.0,75.75,-1306.25,3
338.25,-75.25,4.5,543.5,-327.75,-93.5,-162.25,-1248.25,3
332.25,-88.75,48.0,529.75,-372.0,-110.25,-348.25,-1250.25,3
365.25,-73.5,18.5,466.0,-432.0,-143.25,-471.5,-1270.0,3
412.0,-80.75,-74.5,389.0,-400.0,-192.75,-536.0,-1234.0,3
519.75,-53.25,-116.5,262.0,-429.25,-186.5,-349.0,-39.25,3
623.25,-22.75,-164.0,-23.0,-482.25,-202.0,-300.5,351.75,3
591.5,-15.0,-259.0,-186.0,-416.5,-169.25,-339.25,383.25,3
535.25,82.75,-229.25,-201.75,-297.5,-55.0,-441.0,-182.75,3
435.25,177.5,-134.75,-189.0,-260.25,-147.75,-411.5,-30.5,3
247.75,166.5,-55.75,-298.25,-318.0,-134.25,-347.75,17.0,3
72.5,106.25,24.75,-506.75,-331.0,17.5,-264.5,-313.25,3
-79.5,108.5,62.75,-527.25,-360.0,14.0,115.5,-64.5,3
-139.5,99.25,101.25,-528.0,-405.5,-60.5,397.0,-314.25,3
-226.5,140.25,88.25,-549.0,-228.0,-12.0,477.75,-748.0,3
-264.75,258.75,47.75,-485.75,-118.25,114.25,398.25,-694.5,3
-235.5,251.5,182.5,-467.5,-303.5,241.5,213.5,-616.0,3
-142.75,175.5,150.0,-437.5,-425.0,279.25,84.0,-726.0,3
97.25,-27.0,-211.5,-310.5,-353.25,223.0,-45.25,-855.5,3
381.5,-246.5,-232.75,-156.5,-306.0,194.0,-6.5,-862.0,3
369.0,-312.25,-98.0,41.0,-447.25,76.25,245.75,-473.0,3
111.0,-216.5,-55.0,306.0,-542.75,193.75,348.25,-257.0,3
87.75,-225.5,38.0,267.75,-414.75,261.75,385.0,361.75,3
93.5,-241.5,-51.25,109.25,-182.25,169.75,485.75,309.25,3
129.75,-6.75,-57.75,-29.0,59.75,175.0,634.75,42.0,3
144.0,146.5,-122.5,-263.0,-17.75,-18.75,697.75,-158.25,3
9.0,168.5,-256.0,-316.75,-126.0,107.25,576.0,-148.0,3
-9.25,106.0,-137.25,-245.75,-37.5,332.75,568.0,357.0,3
-36.5,30.75,38.5,-130.5,102.5,190.0,537.75,178.0,3
-412.75,-65.75,135.25,-90.75,195.25,241.25,381.75,-48.75,3
-554.75,-39.25,91.5,-17.75,55.0,350.5,250.0,126.0,3
-167.0,278.0,83.0,171.75,-111.25,302.25,105.75,207.25,3
-140.5,645.5,116.5,-52.5,-20.0,305.25,-67.0,34.0,3
31.75,681.75,97.25,-395.75,-18.0,196.25,-211.5,-201.5,3
231.5,242.0,96.75,-617.0,-164.5,41.5,-282.5,-178.25,3
209.25,-429.75,73.5,-604.75,-108.75,189.25,-330.25,-85.25,3
235.25,-912.25,8.75,-119.25,-207.0,300.25,-345.75,272.0,3
121.75,-909.5,-68.75,258.75,-356.0,318.75,-277.0,752.0,3
260.5,-874.25,-123.25,568.0,-680.75,249.25,-200.75,507.5,3
422.75,-707.5,-195.75,505.5,-987.0,16.75,-211.0,-250.0,3
361.25,-405.5,-212.5,253.0,-1043.5,-98.0,-196.0,-554.75,3
100.0,-163.0,-128.75,-112.0,-1182.25,-161.5,-50.5,-651.0,3
-94.5,66.75,-69.0,-373.0,-1227.25,-262.0,12.25,-699.75,3
-215.25,199.75,-20.5,-55.75,-1210.0,-324.25,-57.75,-647.0,3
-210.25,264.75,24.5,292.0,-886.0,-326.75,-108.75,-454.25,3
-232.5,317.0,39.5,760.75,-620.0,-358.0,-126.5,78.75,3
-305.25,653.0,111.75,766.25,-316.5,-355.25,-158.25,-168.5,3
-364.25,541.25,76.0,577.75,42.25,-364.25,-164.5,-137.0,3
-566.75,-15.25,90.0,823.25,581.5,-345.0,-135.0,149.75,3
-676.75,-236.75,122.0,786.75,1184.25,-290.75,-110.0,250.0,3
-567.5,-248.25,14.75,403.0,1181.5,-290.0,-95.5,159.5,3
78.0,-99.75,-37.75,8.75,1185.75,-254.75,-245.75,-385.5,3
802.5,-117.75,-152.75,-444.5,1157.0,-310.75,-492.5,-967.75,3
652.0,-220.25,-237.5,-798.0,1121.75,-405.75,-634.75,-1087.0,3
104.25,-184.5,-247.25,-994.25,379.0,-446.0,-574.25,-783.0,3
246.0,6.5,-158.25,-1167.75,-647.25,-414.25,-444.0,-571.75,3
433.5,171.75,5.0,-1008.75,-1028.75,-276.25,-429.5,-134.75,3
425.75,60.0,61.25,-885.75,-1070.5,-118.0,-400.25,265.5,3
310.0,-55.0,68.75,-759.5,-1037.75,-62.5,-307.75,502.25,3
-550.5,-35.75,33.25,-397.75,-593.25,-42.0,-299.5,706.25,3
-874.0,78.25,25.5,289.25,-202.0,28.25,-299.5,685.75,3
-916.75,127.75,11.75,654.75,263.5,38.25,-295.5,1026.75,3
-975.25,139.25,0.75,998.25,594.25,-7.25,-321.75,1008.0,3
-957.5,169.0,48.5,964.5,862.0,-81.25,-260.75,992.0,3
-584.5,196.25,110.5,756.0,808.5,-81.25,-192.0,1227.25,3
-150.25,211.5,88.25,515.25,821.0,-46.0,-150.0,931.5,3
-51.0,212.75,22.25,318.0,790.5,-31.5,-208.25,1113.5,3
16.5,217.5,37.5,412.25,674.75,6.75,-264.0,1070.25,3
167.25,140.25,74.75,830.75,784.75,44.75,-240.75,989.0,3
322.0,41.5,108.0,1055.75,942.75,60.5,-268.0,944.0,3
252.25,0.25,5.5,938.75,1016.25,121.25,-312.5,692.0,3
170.5,64.25,-64.75,750.5,1098.0,217.0,-253.25,850.75,3
159.25,165.75,-128.0,589.25,1039.5,246.0,-172.75,769.75,3
99.75,155.25,-248.5,419.75,918.25,225.5,-137.25,826.5,3
120.75,151.25,-259.25,243.25,931.0,198.5,-49.75,871.0,3
78.25,415.75,-284.75,-74.75,1035.25,237.75,17.25,922.75,3
131.25,719.25,-213.25,-577.75,1217.75,294.5,26.25,948.0,3
167.5,706.0,-108.75,-909.0,324.5,305.0,63.5,887.25,3
251.5,607.75,-41.75,-1067.0,-1081.0,317.75,107.0,904.75,3
342.5,644.0,49.5,-970.0,-1259.75,300.25,101.75,721.5,3
367.5,398.0,217.25,-769.25,-1163.5,259.5,162.0,710.25,3
336.5,-389.5,433.0,-517.5,-423.75,244.75,284.0,742.25,3
285.0,-1127.5,432.75,-261.25,176.25,257.5,324.75,759.25,3
364.75,-1153.25,157.75,-452.75,36.75,226.25,344.75,692.0,3
446.0,-1064.75,-139.25,-482.25,125.25,216.5,395.0,537.5,3
564.0,-842.75,-324.25,61.75,925.0,299.0,272.75,387.25,3
611.25,-749.25,-330.75,445.75,790.75,331.0,66.75,149.25,3
515.75,-634.5,-289.25,745.75,-563.5,306.25,-65.5,-100.5,3
353.0,-634.5,-263.0,825.75,-1177.0,271.0,-213.5,-10.0,3
195.0,-660.0,-94.5,504.75,-1213.75,310.75,-128.75,253.25,3
56.5,-582.25,46.5,365.75,-1163.25,331.75,44.25,170.5,3
-55.75,-374.75,91.0,-108.5,-1051.5,374.5,190.75,247.0,3
-131.0,-81.25,144.25,-212.25,-947.5,444.0,235.25,128.75,3
-221.25,13.25,273.0,38.0,-1032.25,476.5,177.25,-457.25,3
-301.75,77.5,430.0,-407.25,-780.75,517.75,108.5,-772.0,3
-320.25,180.25,448.5,-531.75,-398.5,553.0,41.75,-1210.5,3
-236.25,527.75,371.0,-114.5,-142.0,594.5,158.0,-1437.25,3
-171.0,943.0,295.75,473.25,-83.25,629.5,240.0,-16.75,3
-157.25,991.25,201.0,965.75,-276.5,697.75,321.0,716.25,3
-177.5,1008.25,23.5,541.75,-817.5,768.25,404.25,987.25,3
-214.25,1003.25,-117.5,-346.0,-1742.5,790.5,452.0,1373.5,3
-231.0,1006.75,-129.75,-832.0,-2388.75,776.25,415.0,1563.0,3
-228.5,545.75,-19.5,-1304.75,-2512.5,744.25,380.25,1407.25,3
-179.5,-99.25,-28.25,-1150.25,-2065.5,706.25,410.75,1327.5,3
-128.75,-667.25,-182.0,-938.5,-1445.25,739.5,432.0,1018.75,3
-94.5,-1027.75,-246.75,-1057.25,-795.5,772.25,406.5,775.75,3
-23.5,-1043.25,-281.25,-1040.75,-266.0,709.0,361.5,735.25,3
-4.5,-1038.0,-220.75,-983.75,12.5,651.75,354.25,863.0,3
-28.25,-988.5,-163.0,-972.5,-18.25,616.25,490.75,1002.5,3
-57.5,-586.25,-143.75,-984.5,-114.0,566.0,543.0,777.5,3
-153.25,13.5,-103.75,-457.0,-194.5,554.75,348.0,678.25,3
-260.5,648.25,-83.25,73.75,-331.5,531.5,200.0,273.0,3
-341.25,994.25,-85.0,308.0,-221.75,399.0,63.0,-650.75,3
-291.5,1026.75,-44.5,404.75,-188.5,304.75,22.25,-669.0,3
-216.5,898.5,26.5,374.75,182.75,237.25,-97.75,58.0,3
-202.25,451.25,75.0,499.0,626.25,148.0,-171.75,-784.25,3
-233.0,-46.75,115.5,821.0,1028.25,119.0,-105.0,-1216.75,3
-175.0,-472.75,90.75,952.5,1220.75,33.25,-45.75,-1261.0,3
-7.5,-759.25,96.5,961.75,1240.5,34.0,198.0,-1314.75,3
89.5,-839.0,105.75,890.25,1186.0,-0.25,332.5,-761.25,3
209.0,-667.25,97.75,776.0,1060.5,-148.5,388.0,-47.5,3
339.5,-462.25,76.75,654.25,12.0,-272.5,335.75,316.0,3
478.75,-235.25,-1.5,556.5,-1175.0,-289.0,370.75,-72.0,3
513.75,-125.25,-45.0,490.25,-1165.5,-408.5,416.5,137.5,3
430.5,181.5,0.5,436.5,-936.75,-528.0,339.0,-217.25,3
354.5,380.5,67.75,487.5,-595.25,-589.75,331.75,-407.25,3
309.25,302.25,117.5,516.0,-220.5,-789.5,165.5,-369.25,3
238.0,228.5,78.0,449.25,-196.0,-922.25,159.5,-212.75,3
116.5,234.25,-0.25,357.5,-455.0,-1133.0,206.5,40.75,3
2.25,258.5,-45.25,252.5,-919.0,-1182.75,185.25,-795.25,3
-99.25,178.25,-120.5,125.25,-1714.75,-1183.0,162.75,-1250.25,3
-172.75,104.0,-157.75,28.0,-1920.75,-1218.25,-11.5,-1593.25,3
-267.0,-74.0,-190.25,-63.5,-1838.75,-1213.5,-237.0,-1287.25,3
-338.5,-366.5,-186.75,-98.0,-1823.75,-1236.25,-339.5,-1057.0,3
-380.0,-460.25,-134.0,-124.0,95.0,-1272.25,-155.75,-1190.25,3
-317.5,-112.5,-44.5,-256.0,74.75,-1302.0,115.75,-1295.0,3
-301.5,105.75,59.25,-282.0,268.5,-1192.25,153.5,-1497.25,3
-346.25,46.5,156.25,-156.5,573.0,-680.25,-10.0,-1541.5,3
-292.0,104.75,209.5,-52.0,995.75,-82.25,-202.25,-1680.25,3
-183.25,128.75,143.25,-34.75,1315.5,599.25,-329.0,-1651.0,3
-54.75,150.25,46.75,-40.0,1436.5,946.75,-274.5,-1619.5,3
-1.25,128.0,-32.25,-60.75,1512.25,1008.0,-97.75,-1390.25,3
20.5,121.25,-85.5,-82.0,1458.75,1023.75,154.75,-1422.5,3
4.25,165.25,-109.0,-51.0,1479.25,1014.75,338.0,-1214.5,3
-39.25,159.75,-102.0,-14.75,1399.25,1016.5,403.25,-993.5,3
-84.0,155.0,-73.25,-40.5,1140.5,1049.0,386.5,-1078.0,3
-179.75,113.0,-70.25,-51.75,927.75,1099.25,387.25,-1086.25,3
-244.25,77.0,-59.5,-29.75,712.75,1192.0,369.25,-1152.25,3
-169.0,85.0,-59.5,-60.5,673.0,1397.25,82.25,-938.0,3
-44.5,70.25,-100.25,-87.75,787.25,1602.75,-86.0,-774.5,3
-118.25,16.0,-103.0,-108.25,979.75,1747.75,-274.0,-679.5,3
-148.75,15.5,-10.75,-149.0,1710.0,1219.0,-549.25,-733.0,3
-139.5,10.25,29.75,-153.0,2002.25,332.75,-624.25,-568.5,3
-234.5,15.0,34.75,-131.5,1955.0,-162.25,-862.5,19.5,3
-187.75,34.25,81.25,-97.25,1959.0,-143.0,-909.75,470.75,3
-26.25,63.0,86.0,-48.5,1997.5,-165.25,-892.0,729.0,3
-13.75,80.5,21.25,-77.0,1126.5,-254.75,-1026.25,503.5,3
-45.25,73.5,-58.5,-77.0,61.0,-316.5,-862.0,305.75,3
-9.5,81.75,-57.0,-51.25,-787.0,-404.75,-726.25,450.5,3
61.0,49.25,-39.5,-103.0,-1556.75,-622.5,-880.0,425.75,3
246.25,51.5,-20.25,-131.5,-1949.0,-876.75,-954.25,505.75,3
356.5,34.5,22.75,-181.25,-1835.0,-1157.25,-1055.5,541.0,3
290.75,-20.0,75.25,-183.5,-1438.25,-1429.0,-1033.0,596.75,3
332.0,-71.75,77.25,-156.0,-989.25,-1039.5,-350.5,658.75,3
446.5,-86.5,52.5,-139.75,-697.25,-246.75,679.25,619.25,3
445.0,-59.25,76.75,-58.25,-691.5,407.5,1160.5,655.25,3
385.75,-23.0,54.5,-50.5,-580.5,464.25,1151.75,674.75,3
349.25,35.25,25.75,-16.0,-718.25,351.0,1024.25,714.5,3
252.5,27.5,13.5,10.5,-777.75,30.25,1176.75,724.0,3
70.5,-60.25,-9.25,-10.75,-864.5,-193.0,1360.0,783.25,3
-164.25,-192.25,-13.25,-13.75,-1029.0,-194.75,1402.75,820.25,3
-342.25,-290.75,-5.25,-53.75,-1115.5,-184.25,1212.5,790.75,3
-279.75,-288.0,-20.0,-28.0,-1153.25,-177.75,962.75,744.0,3
-154.0,-277.25,-82.25,-22.5,-1032.0,-809.25,867.75,704.25,3
52.0,-236.5,-109.25,-40.75,-889.75,-1192.5,884.75,670.0,3
154.25,-97.25,-88.25,27.0,-859.25,-1231.25,950.5,653.5,3
-156.0,26.0,-7.0,59.0,-862.0,-1263.25,1009.0,640.5,3
-589.25,2.75,95.5,29.75,-877.75,-1426.5,1022.75,583.75,3
-707.5,-6.75,155.75,27.5,-522.25,-1610.75,892.25,578.75,3
-751.25,21.25,176.25,29.75,-61.0,-1659.0,597.5,603.25,3
-719.25,44.75,166.0,50.5,66.25,-1697.0,301.75,674.75,3
-361.75,42.5,170.0,78.25,45.75,-1314.75,-130.5,728.25,3
-87.25,7.5,137.0,84.25,-282.75,-905.75,-467.5,803.75,3
283.0,-24.5,5.75,59.75,-689.25,-745.75,-806.75,804.75,3
802.25,-23.25,-127.25,-17.5,-783.25,-710.75,-1039.75,635.5,3
1106.25,53.25,-144.25,-46.75,-950.0,-734.5,-962.5,457.25,3
1132.5,30.25,-96.25,-69.0,-1084.25,-1092.25,-950.75,268.5,3
961.25,-9.75,-127.75,-109.5,-1152.75,-1073.5,-866.25,117.25,3
613.75,-1.25,-149.75,-104.0,-1121.0,-923.5,-828.5,64.25,3
205.5,21.25,-121.0,-42.25,-1091.5,-717.25,-819.25,70.75,3
-152.5,-4.5,-109.5,-25.75,-1006.25,-514.75,-716.25,25.75,3
-234.5,-51.25,-74.0,-25.5,-868.0,-476.25,-543.75,-46.5,3
-190.75,-14.5,-56.75,-4.0,-667.75,-391.25,-517.0,-126.0,3
-320.0,2.25,-27.75,-18.5,-678.75,-332.75,-635.75,-218.0,3
-307.0,21.0,-67.75,-6.75,-809.5,-62.0,-674.25,-252.75,3
-146.25,11.0,-65.25,-29.0,-1009.0,343.0,-665.5,-256.75,3
-116.75,-40.0,20.0,-9.0,-1126.0,582.25,-811.0,-139.5,3
-126.0,-23.75,-3.75,0.75,-1102.25,542.0,-857.25,-4.25,3
-191.5,2.0,-45.5,-2.25,-1232.75,333.25,-665.75,63.25,3
-250.5,2.75,-84.5,7.0,-1208.75,53.75,-717.75,66.75,3
-262.25,22.0,-90.75,12.75,-928.5,-125.0,-1179.25,59.25,3
-192.5,73.5,-91.75,33.75,-556.25,-323.75,-1400.75,39.25,3
-187.0,76.5,-88.5,-51.75,-295.5,-560.0,-1381.25,-103.25,3
-167.75,21.5,-50.75,-101.0,-242.0,-471.75,-1205.5,-278.75,3
-74.25,-2.5,-12.25,-118.25,-662.5,-389.5,-913.25,-520.0,3
23.75,-48.5,-19.75,-124.0,-1063.75,-496.75,-686.75,-818.0,3
142.5,-165.5,-78.25,-86.75,-863.0,-633.0,-561.0,-909.5,3
222.5,-214.5,-108.75,-74.0,303.0,-821.75,-347.5,-892.0,3
318.75,-90.0,-107.75,-54.0,1757.75,-652.0,-217.75,-720.25,3
304.75,54.25,-83.5,-27.75,1876.0,-140.5,-153.75,-498.0,3
284.5,86.0,-97.0,21.0,1790.5,446.75,-48.75,-554.25,3
265.0,113.25,-104.0,115.0,1078.25,773.5,77.75,-529.75,3
275.25,152.75,-111.0,155.75,406.25,1021.5,172.25,-572.0,3
305.25,171.75,-137.75,105.25,-73.0,1214.5,210.25,-614.75,3
238.25,148.75,-130.75,6.25,-29.75,1214.25,307.75,-605.25,3
52.5,71.75,-139.0,5.75,787.75,1165.0,477.0,-642.25,3
-101.0,60.5,-110.0,46.5,1113.0,805.0,799.25,-629.0,3
-14.25,103.5,-72.5,128.0,912.75,631.0,990.25,-607.5,3
35.25,127.25,-60.5,250.75,726.0,687.5,800.5,-559.75,3
96.5,167.75,-45.0,241.0,902.0,615.75,665.0,-551.75,3
-103.75,100.5,-12.75,316.25,1303.25,587.0,365.5,-607.75,3
-537.5,-169.5,58.0,506.25,1493.0,688.5,162.75,-778.25,3
-789.5,-593.0,128.0,614.5,1405.75,862.75,491.5,-764.75,3
-646.75,-643.0,235.5,518.5,336.25,806.75,773.25,-467.5,3
-399.5,-558.5,247.25,400.0,-15.5,556.5,842.25,-486.0,3
-364.75,-468.75,174.25,210.75,904.5,387.25,856.5,-616.0,3
-228.5,-306.0,159.0,-25.25,1274.0,335.5,846.0,-108.5,3
-533.75,-279.25,197.25,124.5,1542.75,258.0,789.0,397.25,3
-748.0,-313.75,271.0,116.25,1809.0,227.0,687.75,546.25,3
-589.5,-248.75,233.25,77.0,1506.75,251.0,707.25,880.5,3
-426.0,-242.25,151.25,82.5,1085.75,325.0,789.5,972.75,3
-167.0,-57.25,121.25,32.25,1003.5,459.25,952.25,1257.0,3
-61.25,91.75,92.25,10.0,1269.0,651.5,959.5,1655.75,3
52.25,211.0,47.75,-199.5,1160.5,1306.0,835.25,1660.0,3
75.75,253.5,25.5,-181.5,974.0,1752.25,613.75,1664.25,3
-22.25,269.0,85.0,-137.75,820.75,1597.75,473.75,1664.5,3
-441.0,290.5,137.0,-207.25,411.75,1201.75,691.75,1464.0,3
-728.75,186.0,140.25,-133.5,48.5,700.0,850.5,1306.0,3
-232.25,134.0,124.25,-164.25,-209.75,274.75,858.25,1026.0,3
104.75,139.75,63.0,-320.25,-275.0,-168.25,896.25,580.25,3
82.0,197.0,-19.75,-352.25,-83.0,-290.0,817.0,599.5,3
108.0,215.25,-49.0,-503.25,-59.0,-130.0,504.75,481.0,3
221.25,213.25,-89.75,-564.75,34.5,92.0,467.75,510.75,3
435.75,192.25,-104.75,-455.5,26.25,322.0,663.75,864.25,3
511.75,179.25,-57.25,-419.5,-356.75,514.0,496.25,764.5,3
623.0,229.75,-44.5,-382.0,-671.0,781.5,280.75,352.75,3
795.75,380.75,-38.0,-418.5,-1093.75,989.0,156.0,-7.5,3
661.5,401.5,7.5,-341.0,-1123.75,1124.0,-9.25,-233.75,3
47.75,303.75,46.25,-238.75,-985.0,1149.75,-103.5,-191.75,3
-438.25,198.0,37.75,-138.75,-817.75,1108.25,-187.0,42.0,3
-344.25,25.0,71.0,-118.5,-775.5,865.75,-43.0,177.5,3
-65.0,-63.0,116.25,-166.75,-742.5,553.0,-60.0,313.0,3
116.75,-143.5,96.0,-178.5,-544.5,346.75,-229.75,154.75,3
114.25,-252.5,34.5,-151.0,-435.0,229.5,-426.0,-286.25,3
181.0,-295.0,-13.75,-123.0,-432.75,103.75,-582.0,-12.0,3
379.75,-74.75,-90.0,-115.25,-582.0,25.0,-643.0,-55.0,3
403.0,132.5,-128.0,-36.5,-645.75,-46.5,-680.0,-526.75,3
259.25,153.75,-43.25,89.25,-628.0,-309.0,-588.0,-498.25,3
52.0,185.25,-57.0,113.75,-646.0,-548.75,-427.0,-269.25,3
0.5,176.25,-128.0,0.0,-700.25,-556.25,-313.25,296.5,3
-109.25,115.0,-79.0,-4.75,-742.75,-484.75,-255.0,86.75,3
-91.5,27.75,-73.5,21.75,-929.5,-467.5,-116.25,-561.5,3
27.75,12.75,-105.5,62.5,-1075.0,-262.0,-322.5,-843.25,3
33.25,29.5,-94.25,55.5,-1211.0,-57.75,-178.5,-959.5,3
89.25,92.25,-133.0,10.25,-1499.25,-36.25,234.0,-717.0,3
122.25,193.0,-48.75,32.0,-1632.75,-9.0,542.75,-519.25,3
237.0,225.0,56.75,40.25,-1447.25,292.75,880.0,-610.25,3
181.0,158.5,82.5,28.5,-995.5,809.25,897.75,-512.75,3
56.0,49.25,73.0,55.5,-884.0,1090.25,733.5,-101.0,3
27.25,38.75,26.25,66.75,-984.5,981.75,354.0,52.0,3
-113.25,-7.25,67.75,-45.5,-936.75,795.75,70.5,56.5,3
-354.25,-62.75,41.25,-166.25,-894.5,827.75,-105.5,26.25,3
-334.5,6.75,62.25,-244.25,-395.75,681.0,-89.5,200.75,3
-91.0,80.0,151.25,-242.25,47.75,189.75,-105.5,232.25,3
44.25,137.5,99.25,-219.75,-190.0,-196.0,-164.5,214.75,3
169.25,153.0,0.0,-137.75,-532.75,-432.75,58.0,480.75,3
253.5,148.5,-279.75,-172.0,-994.0,-466.25,27.75,750.5,3
274.5,6.0,-385.25,-83.0,-1639.5,-281.75,-0.25,907.75,3
46.75,-216.5,-223.5,88.25,-1742.25,-110.0,120.5,826.75,3
-155.75,-367.75,-325.0,-142.75,-2129.5,8.75,175.25,856.0,3
-177.5,-467.75,-321.25,-268.5,-1505.5,88.75,138.0,696.5,3
-180.75,-357.75,-166.75,-152.75,-1020.5,103.0,5.5,290.5,3
-124.0,-248.75,41.5,51.75,-737.0,18.5,-199.25,63.0,3
-198.0,-299.75,243.0,142.5,-441.25,-129.75,-483.0,67.5,3
-172.0,-301.5,253.5,119.75,-732.5,-193.25,-584.5,227.25,3
-80.75,-233.75,233.5,145.5,-904.5,-36.5,-369.75,377.25,3
-54.75,-124.5,334.0,122.75,-826.25,-243.0,-167.25,540.25,3
-42.75,-61.25,410.75,142.0,-665.25,-433.75,-197.5,607.25,3
-38.75,14.0,346.0,152.25,-572.5,-498.75,-377.25,854.25,3
-9.0,78.5,234.75,113.25,-561.25,-884.25,-682.75,864.5,3
-23.75,98.5,23.25,30.0,-570.25,-1256.75,-912.5,882.25,3
1.0,123.0,-83.5,-7.5,-482.75,-1541.25,-1301.0,1007.75,3
8.25,96.5,-90.25,121.75,-135.5,-1853.75,-1405.5,954.5,3
3.75,40.5,-16.0,212.5,123.25,-1294.5,-1374.75,953.0,3
7.5,15.75,54.25,223.25,173.5,-740.0,-1234.25,594.25,3
-46.25,5.0,64.25,221.75,155.25,-283.75,-1087.75,32.75,3
-30.0,-55.75,32.0,174.5,191.75,-108.5,-945.25,-520.5,3
-51.0,-142.5,-72.75,140.25,253.5,533.5,-836.25,-871.5,3
-81.5,-58.0,-80.0,104.5,245.75,856.5,-777.25,-995.5,3
-15.25,79.0,-129.75,58.25,170.25,735.0,-782.0,-1137.75,3
21.75,120.5,-215.25,22.5,602.75,242.75,-603.25,-1065.0,3
46.75,189.25,-169.25,-9.5,870.5,-264.75,-631.25,-803.0,3
-20.5,113.0,-65.75,13.0,535.0,-143.25,-662.75,-814.0,3
-180.75,36.75,-33.25,-5.75,270.0,-44.75,-843.25,-848.25,3
-107.0,52.0,-4.75,-48.25,200.0,-40.75,-881.0,-815.0,3
-160.75,-30.0,14.5,65.25,263.5,-63.75,-661.0,-928.75,3
-142.75,-89.5,-72.75,-15.5,-112.75,-97.25,-469.0,-895.75,3
6.5,-131.75,-127.75,-19.75,99.75,-78.75,-355.5,-946.0,3
-44.25,-163.5,-91.75,79.75,-12.0,326.0,-169.25,-907.5,3
-100.5,-139.0,-62.25,50.25,-250.25,532.25,-33.5,-839.25,3
48.5,-63.75,-74.75,-30.75,366.75,605.5,-123.5,-847.0,3
-50.5,-89.75,19.5,57.5,1254.5,681.25,-233.25,-898.25,3
-199.0,-45.0,74.5,82.5,1562.0,702.5,-299.25,-911.25,3
262.75,136.75,33.75,-7.5,1805.0,812.0,-430.75,-852.75,3
376.0,163.25,48.75,64.0,1842.25,667.5,-285.0,-778.75,3
376.25,155.25,13.25,-25.5,1425.0,504.25,44.0,-670.25,3
481.25,138.0,-74.5,-127.5,1443.75,200.5,197.0,-585.0,3
307.75,86.25,-164.75,-132.75,1706.75,-90.5,453.25,-558.25,3
111.25,3.0,-167.5,-59.0,1882.75,-407.25,598.0,-337.25,3
10.5,7.0,-262.5,-85.5,1662.75,-587.0,686.75,-10.75,3
68.75,22.75,-385.5,-214.5,1391.25,-349.25,962.75,283.0,3
-35.5,-85.75,-132.0,-147.25,1792.0,1.0,1169.75,519.75,3
-183.5,-148.5,50.75,-100.5,1882.75,317.5,1369.5,811.5,3
-158.25,-93.0,118.75,-138.5,1879.75,559.0,1574.25,881.0,3
-268.0,-53.5,154.0,68.0,1687.75,761.5,1716.75,863.5,3
-174.75,13.5,63.5,40.5,849.0,795.75,1690.75,923.25,3
55.25,113.0,71.75,13.75,616.75,793.75,1428.75,913.0,3
-10.5,93.75,113.25,181.75,759.5,712.25,1165.75,925.5,3
-35.5,143.5,81.5,163.25,1081.75,668.25,1046.75,944.75,3
-206.5,215.5,-109.25,162.5,1271.25,574.5,1115.75,938.5,3
-637.75,190.75,-291.5,128.75,1013.25,368.5,1111.25,931.5,3
-570.5,175.75,-267.5,6.25,635.75,197.25,1128.75,608.75,3
1.5,145.5,-157.75,-118.0,241.0,-62.75,1144.5,277.0,3
374.25,-4.75,-116.25,-74.75,-68.0,-269.5,1087.75,-40.25,3
816.25,-95.75,-36.25,-90.5,-141.5,-369.0,1071.0,-195.75,3
1072.25,17.25,-83.5,-219.75,25.25,-483.5,517.25,-359.0,3
899.25,122.5,-208.5,-243.25,281.5,-398.0,309.25,-606.25,3
544.5,130.5,-177.5,-330.5,422.5,-14.0,502.5,-853.5,3
344.5,164.75,-111.25,-490.0,175.0,276.75,612.5,-965.25,3
228.75,160.25,-111.25,-603.0,-287.25,454.5,587.75,-938.0,3
36.0,74.75,-106.0,-569.75,-700.0,589.25,540.75,-877.0,3
-136.0,70.5,43.0,-378.0,-828.0,688.5,485.5,-798.0,3
-198.0,37.25,190.25,-212.5,-746.25,638.75,541.25,-755.75,3
-182.5,-46.25,286.5,-66.5,-520.5,455.75,724.75,-751.75,3
-254.25,-155.25,303.5,-0.75,-514.5,385.25,822.0,-670.0,3
-170.75,-225.25,275.0,-0.25,-372.0,459.25,872.25,-564.0,3
-266.75,-229.0,280.75,208.5,638.25,553.75,916.5,-676.5,3
-401.0,-143.75,214.0,332.5,772.5,535.0,847.75,-886.25,3
-372.5,-45.5,99.25,348.0,480.25,301.0,740.5,-888.5,3
-278.75,-58.0,157.0,318.5,85.25,95.25,666.0,-790.25,3
-114.25,62.25,355.5,256.75,-32.25,0.25,616.5,-573.25,3
-200.0,27.0,368.0,342.75,21.0,-97.0,545.75,-375.75,3
-296.5,48.75,262.75,235.75,-285.25,-149.5,461.25,-313.0,3
-377.5,117.75,123.75,142.5,-311.25,-261.75,426.75,-264.25,3
-226.5,101.0,0.5,32.75,-587.5,-304.5,495.75,-167.75,3
11.0,139.25,-32.75,22.0,-642.5,-269.75,550.75,-36.25,3
-86.75,-70.75,-88.75,165.25,-572.5,-342.75,493.5,180.25,3
-166.5,-232.25,-230.25,182.75,-688.75,-515.25,349.0,459.25,3
-128.0,-258.5,-420.5,192.5,-347.5,-745.5,177.75,617.75,3
-102.25,-235.0,-396.5,116.0,-130.0,-894.5,-151.5,693.0,3
-172.0,-144.5,-363.0,49.5,-66.25,-871.0,-436.25,742.5,3
-95.0,-66.5,-462.5,-24.25,-8.0,-819.5,-570.75,738.75,3
-140.75,-76.0,-242.25,44.75,-21.0,-703.25,-898.75,678.0,3
-148.0,-88.75,-47.25,29.0,-191.0,-612.0,-934.75,647.25,3
-40.75,-102.0,22.75,71.0,-308.75,-595.75,-801.5,574.25,3
-233.75,-198.0,-20.5,187.0,-759.5,-612.75,-890.0,521.25,3
-521.5,-211.75,-337.25,188.25,-1153.0,-816.5,-660.75,373.75,3
-616.5,-266.25,-298.75,177.75,-1115.75,-804.25,-302.5,138.75,3
-461.5,-207.75,10.75,99.0,-1150.5,-459.5,34.0,30.5,3
-331.0,-54.25,311.5,-88.75,-1620.75,-105.0,93.25,-36.25,3
306.0,121.5,468.25,-395.5,-2201.5,50.25,-172.5,-74.5,3
539.5,119.25,406.75,-167.25,-1991.75,208.5,-330.5,-128.0,3
142.75,-9.25,316.5,-104.0,-1955.0,207.25,-528.0,-49.25,3
124.25,174.5,103.25,-349.75,-2009.0,-82.0,-572.75,83.0,3
108.5,160.25,-44.25,-51.75,-1567.25,-332.25,-332.75,-9.5,3
102.75,83.25,-89.0,98.25,-1318.5,-432.5,2.5,-92.75,3
135.25,137.5,-145.75,109.0,-1199.5,-340.0,111.5,-171.25,3
-169.0,67.5,-117.75,197.25,-678.5,-225.75,69.75,-273.0,3
-196.5,76.25,-49.75,105.25,-438.5,-137.75,78.75,-192.0,3
164.0,98.75,-59.0,-5.25,-703.25,-112.75,70.0,37.0,3
324.25,183.75,-70.75,-189.25,-793.0,-231.0,91.5,174.5,3
548.0,161.0,5.25,-258.5,-297.0,-274.25,-40.25,181.5,3
545.0,50.0,98.5,-231.25,598.75,-205.25,-216.25,131.75,3
506.25,-10.75,138.75,-197.5,1039.75,-94.0,-179.25,-9.75,3
314.0,-59.0,133.75,-95.5,533.25,120.75,14.0,-42.75,3
40.0,-146.0,138.5,15.0,0.0,391.75,300.25,15.0,3
-116.5,-185.25,79.25,16.75,-8.75,564.0,601.25,32.0,3
-203.5,-0.5,35.25,42.0,262.0,893.75,791.75,-12.0,3
-252.75,-52.25,0.75,254.25,728.5,1340.5,830.5,-164.75,3
-315.25,-74.0,-46.25,116.75,738.75,1392.0,843.25,-113.25,3
-103.25,45.75,-46.5,-80.25,985.75,1219.75,846.25,149.25,3
-238.5,8.75,11.25,70.0,1561.5,860.75,721.25,188.0,3
-357.75,-31.25,56.0,22.75,1525.0,72.0,400.0,120.75,3
-191.0,-13.75,12.75,-115.5,1308.25,-682.0,56.0,176.5,3
-205.0,11.5,-1.25,-7.75,1176.25,-965.25,-27.5,171.75,3
-254.0,-0.25,-4.75,9.5,1048.5,-1079.5,-25.5,113.75,3
-202.25,24.0,36.75,-12.25,983.25,-1462.25,-128.5,-168.25,3
-330.5,41.0,86.25,32.0,1066.0,-1777.0,-238.75,-396.5,3
-412.5,34.0,58.0,16.5,1072.25,-1851.0,-242.0,-169.75,3
-218.5,36.0,-23.0,44.75,1038.75,-1891.25,-232.5,-57.25,3
-79.25,21.25,-86.25,51.25,1141.75,-1866.75,-143.75,5.75,3
30.75,-27.25,-118.5,9.5,1464.0,-1494.0,183.5,296.5,3
52.25,11.5,-141.25,-27.75,1962.25,-1020.25,551.25,398.5,3
-63.0,-30.5,-166.75,78.0,2177.0,-531.75,862.25,256.5,3
-77.25,-97.75,-195.0,137.0,2281.0,34.75,931.25,140.75,3
-61.75,-51.75,-148.5,62.5,2171.25,578.0,809.25,176.25,3
-262.5,-56.5,-57.5,18.0,2036.5,844.5,326.75,361.5,3
-298.5,-30.25,25.5,-39.75,1811.5,1085.25,-164.0,602.0,3
-64.25,-21.25,69.25,-124.5,1568.25,1240.75,-474.0,795.5,3
56.0,13.5,75.75,-189.25,1480.25,1165.5,-688.0,604.75,3
243.5,58.25,0.5,-220.5,1644.75,945.5,-620.75,409.5,3
412.5,88.5,-193.0,-312.75,1986.5,692.0,-405.0,529.0,3
443.25,126.5,-290.25,-287.75,2091.25,440.75,-244.25,382.0,3
562.5,135.25,-237.75,-285.0,1981.75,362.0,8.75,484.25,3
726.0,126.5,-142.0,-355.75,1973.5,347.25,290.25,567.75,3
640.75,58.0,34.25,-295.0,1973.25,264.5,388.0,562.75,3
439.0,39.25,52.0,-257.0,2127.5,194.5,316.0,574.0,3
295.75,47.75,-245.5,-162.25,2181.5,-72.0,136.25,265.5,3
132.75,36.5,-591.75,-130.75,2147.5,-201.25,-201.0,-2.25,3
82.75,-3.25,-701.0,-100.0,1785.5,-94.75,-703.0,-313.0,3
62.5,-28.5,-274.5,-59.25,1479.5,0.0,-876.75,-366.75,3
33.0,-42.25,445.25,-7.75,1268.0,134.25,-858.0,-379.0,3
-42.5,-35.25,601.25,-36.5,835.5,155.25,-737.75,-316.25,3
-66.25,45.25,188.0,-214.5,276.25,182.25,-655.25,-265.0,3
-22.75,126.25,-3.5,-158.75,-247.5,371.5,-490.0,-334.75,3
-120.5,116.25,374.0,35.0,-260.75,739.0,-571.0,-314.75,3
-253.25,36.5,549.5,198.75,-112.75,978.25,-735.25,-283.5,3
-341.0,47.25,610.0,300.75,-172.5,1060.0,-529.25,-167.25,3
-363.5,83.5,747.5,287.0,-338.0,1014.0,-125.5,-73.75,3
-265.0,40.25,587.25,257.5,-443.25,691.25,32.75,-49.5,3
-86.75,3.25,348.5,205.25,-569.0,272.25,-77.75,-123.25,3
-24.5,2.0,-127.5,116.5,-663.0,20.25,-521.0,-125.25,3
-27.75,-34.0,-398.0,-3.75,-872.0,107.0,-692.75,-132.25,3
52.75,-139.5,-309.5,-154.0,-1053.0,123.0,-544.0,-122.0,3
252.5,-166.25,-225.0,-267.25,-1425.0,287.0,-398.75,155.5,3
633.25,-96.25,-240.0,-327.0,-1906.0,707.25,-225.25,384.5,3
764.5,-67.75,-317.75,-376.25,-2197.75,843.5,-193.5,301.25,3
692.25,-0.5,-274.0,-347.25,-2110.5,792.75,-350.75,174.25,3
471.0,22.0,-271.0,-213.75,-1718.25,524.25,-465.0,144.25,3
163.25,81.0,-279.25,-212.75,-1570.5,397.5,-327.0,114.0,3
47.75,198.0,-143.5,-255.75,-1329.25,248.5,-129.25,-172.25,3
-191.75,182.5,-146.0,-120.25,-1215.25,-307.75,-121.25,-445.75,3
-404.5,125.75,-175.0,-27.25,-1205.0,-555.75,-225.75,-422.0,3
-531.5,110.25,-277.0,-35.25,-1472.5,-314.5,-109.75,-447.0,3
-502.5,208.0,-726.0,-219.25,-2070.0,-90.0,-173.0,-408.0,3
-233.5,292.0,-800.5,-373.25,-2081.0,148.0,-133.0,-275.25,3
-585.25,138.0,-355.75,-240.0,-1507.0,157.5,163.75,-62.75,3
-547.0,123.5,-42.75,-469.5,-1696.75,-135.25,170.5,371.0,3
-172.5,335.0,249.5,-396.5,-1503.5,-117.5,94.0,534.75,3
658.0,552.25,357.5,-307.5,-1203.0,-74.25,-206.25,617.25,3
1327.5,665.0,231.5,-335.0,-1025.5,-103.0,-373.5,482.25,3
1417.25,504.75,384.0,-228.25,-724.0,-40.0,-267.25,81.75,3
1299.0,333.75,500.25,-187.0,-828.5,-110.75,-236.0,-66.25,3
1296.75,306.25,556.25,-166.5,-958.5,-181.75,-248.75,-227.25,3
1042.75,294.75,603.0,-229.75,-1160.25,-124.0,-235.0,-57.25,3
703.25,268.75,481.0,-218.0,-968.0,3.75,-244.5,-14.5,3
375.0,129.75,291.5,-201.5,-705.5,135.25,-206.25,-27.5,3
5.5,-19.75,48.0,-194.5,-546.75,145.75,-134.25,328.0,3
-574.5,-156.5,-28.25,-111.5,-598.75,82.5,-131.0,563.75,3
-1303.75,-191.25,72.5,15.75,-1013.0,-1.5,-37.75,588.5,3
