0,1,2,3,4,5,6,7,label
802.75,64.5,72.0,-338.25,240.5,696.75,-942.75,-520.75,4
646.5,95.25,18.5,54.0,446.25,446.0,-996.75,-293.5,4
324.25,-121.25,1.5,264.0,292.25,212.0,-850.75,-269.25,4
408.25,-250.75,-43.5,68.0,-116.25,202.5,-682.5,-275.25,4
467.5,-298.0,-130.25,-201.25,-182.0,467.5,-646.75,-270.0,4
249.25,-206.25,-124.25,-301.75,51.75,561.5,-358.75,-219.75,4
-203.25,-306.0,-143.25,-16.75,495.0,703.5,215.25,-142.5,4
-542.5,-321.5,-131.75,183.5,-434.5,1281.75,671.5,-168.0,4
-308.75,-166.0,1.5,183.0,-1749.25,2066.5,1102.25,-611.5,4
-261.5,-195.5,48.75,146.25,-1704.5,2380.25,1509.75,-56.0,4
-114.75,-35.0,6.0,29.75,-1821.75,2491.75,2001.0,-363.0,4
-16.25,320.25,-9.75,132.0,-1797.0,2186.25,2231.0,-778.0,4
184.25,465.5,-22.5,-86.25,-2246.5,1889.0,2658.75,-70.25,4
510.5,442.0,-6.5,-324.25,-1026.75,2331.75,2870.5,113.25,4
387.5,504.5,220.0,-619.75,-574.75,2472.25,2916.25,360.75,4
315.75,774.5,530.0,-1079.75,-513.0,2279.0,2792.5,56.5,4
168.25,792.5,814.0,-1548.5,-320.5,2203.5,2250.5,-90.25,4
155.75,690.75,910.75,-1491.0,-318.75,2351.25,2064.0,-118.0,4
-225.5,472.25,839.5,-1048.25,285.0,1995.25,1976.75,203.5,4
-977.5,302.75,703.5,-494.25,40.25,1109.5,2066.0,1207.0,4
-1165.0,396.0,599.75,96.25,-166.5,176.5,1499.0,1507.75,4
-1261.5,397.0,532.5,297.25,243.5,-777.25,-311.5,1347.25,4
-1454.5,-4.75,405.75,836.5,692.25,-615.25,-1501.75,1687.5,4
-1807.75,-950.5,-208.25,1661.75,870.5,-118.0,-2004.25,1742.25,4
-1828.0,-1110.0,-1009.25,1601.25,773.25,-43.0,-1963.0,1292.5,4
-1538.5,-898.0,-959.75,1174.5,640.5,-111.25,-1787.25,966.75,4
-1309.75,-907.0,-653.0,881.75,628.75,-348.75,-2005.25,771.25,4
-833.0,-768.0,-752.25,598.25,997.25,-231.5,66.5,357.75,4
-230.75,-571.25,-336.25,206.5,2520.75,221.5,-355.0,474.25,4
170.75,-532.25,-398.75,33.75,2384.0,557.75,-753.0,690.0,4
821.0,-297.25,-257.5,-103.75,2288.25,396.0,-395.0,672.75,4
1047.5,-237.5,-147.75,57.75,2263.25,-36.25,-1491.75,776.75,4
1074.0,-182.25,-104.5,96.5,2170.0,-953.75,-1074.5,863.5,4
1126.25,-271.5,5.75,462.5,2133.0,-1533.25,-1074.5,834.0,4
1191.5,-188.75,-83.0,517.75,1956.0,-1728.0,-732.0,89.75,4
1536.5,-80.5,56.5,150.0,1523.25,-1820.25,547.75,-1447.0,4
2084.75,609.0,691.25,-428.75,1076.25,-1386.5,1258.0,-1765.5,4
2156.5,917.75,782.5,-568.25,1226.25,-184.25,39.5,-1590.0,4
1766.25,864.75,483.25,-444.5,1439.0,70.25,247.25,-1365.75,4
1353.5,1071.75,576.5,-622.0,1360.5,305.75,1518.25,-745.25,4
795.75,1156.25,311.0,-548.5,1112.75,634.75,1379.0,-386.5,4
328.75,1112.5,125.5,-563.25,-149.75,668.5,-902.0,-470.0,4
-59.75,1235.25,211.75,-527.25,-553.5,867.75,-1337.0,-264.5,4
-671.75,907.25,78.0,-597.5,-592.75,951.75,-1341.5,-375.25,4
-1136.5,538.75,-84.0,-559.0,-517.5,1033.25,-1123.25,-517.0,4
-1459.5,-345.25,-288.5,-213.25,-8.0,1038.75,-730.75,-323.25,4
-1995.0,-1129.0,-310.0,177.0,-124.75,590.25,-1105.25,-544.25,4
-2234.75,-1104.0,-759.25,284.75,113.25,-759.75,-792.25,-956.75,4
-2099.25,-1175.75,-990.25,189.0,722.75,-1129.25,-358.75,-1146.75,4
-1524.25,-1602.75,-843.5,293.75,908.75,-1072.25,-472.0,-1398.0,4
-861.75,-1399.0,-618.5,348.5,851.75,-544.0,-288.5,-1380.0,4
-297.25,-699.0,-611.5,293.25,606.5,-739.0,-210.25,-916.25,4
238.0,-421.25,-449.25,287.0,-794.75,-219.75,-181.75,-547.75,4
674.0,-289.5,-435.0,424.0,-1361.75,1071.25,-1688.5,8.75,4
768.5,-135.5,-135.0,737.5,-1575.0,870.75,-1768.5,1467.75,4
943.0,-39.75,142.75,761.5,-1689.0,1188.0,-1848.25,2095.75,4
922.0,59.25,175.5,651.5,-1863.25,1293.5,-1994.0,481.0,4
944.5,104.5,44.5,480.5,-2083.0,1100.5,-1855.75,7.0,4
992.25,81.5,-111.75,227.75,-2192.25,1193.25,-1803.0,-56.0,4
949.0,88.75,-88.0,79.75,-2246.0,1368.25,-1613.0,-87.75,4
852.75,94.5,-107.75,327.75,-2260.75,1256.0,-907.25,-18.75,4
679.25,64.75,171.0,1057.0,-2310.5,864.25,-378.5,32.75,4
621.0,117.0,590.5,1204.75,-2290.5,1128.75,-106.25,46.5,4
478.0,80.5,1031.75,857.75,-2302.5,1350.75,-504.0,1583.5,4
346.0,145.5,1064.5,90.5,-2296.75,1303.75,-960.0,1785.25,4
15.5,807.0,579.5,-944.0,-1193.0,1000.0,-1290.25,1451.25,4
-39.75,1116.75,-21.0,-1340.75,-303.25,755.5,-1352.0,2021.0,4
-106.5,1254.25,-511.5,-1423.75,-275.25,-625.25,-1309.25,62.75,4
-143.75,1335.25,-665.25,-1544.0,-248.75,-525.0,-1422.0,48.75,4
-96.25,1140.75,-615.0,-1627.25,-213.75,-383.75,-1534.25,-602.5,4
-25.75,199.75,-458.5,-1514.25,-123.75,89.75,-1586.25,-1490.75,4
32.75,-716.0,-276.75,-908.0,29.75,571.25,-1231.0,-1542.25,4
-123.75,-1009.5,-287.0,-278.25,-25.5,398.25,-584.0,-642.75,4
-185.75,-1058.25,-281.75,102.0,-1100.5,-165.75,52.5,-221.0,4
-420.0,-1122.25,-144.25,193.25,-1187.75,-508.0,1086.25,-115.75,4
-688.25,-1187.5,-21.75,211.75,-77.75,-931.5,1801.25,-45.25,4
-948.25,-1130.25,9.5,-294.0,-474.0,-921.5,1942.75,-338.75,4
-1369.0,-1329.25,130.75,-728.5,-593.0,-1142.5,2116.75,-660.0,4
-1688.5,-1223.75,180.75,-766.75,-247.0,-1268.0,2117.25,-1453.25,4
-1394.5,-547.0,144.5,-683.75,-64.75,-1292.25,1886.0,-1873.0,4
-1056.0,200.5,23.75,-493.5,-594.5,-1176.0,1750.75,-759.25,4
-1021.25,620.5,-151.75,-352.75,-1076.0,-1154.5,1606.25,-263.25,4
-141.5,724.25,-220.25,-270.0,-1318.75,-1061.0,1517.75,-326.75,4
950.75,694.75,-239.25,-211.0,-978.75,-918.0,1431.0,-513.25,4
1080.25,575.75,-78.0,-63.0,-775.5,-823.75,1329.0,-16.75,4
1362.0,528.75,70.25,-37.75,-425.25,-790.25,1062.25,1056.0,4
1697.5,620.25,22.0,168.0,-25.25,-979.25,946.25,1555.0,4
1901.0,676.0,-40.75,456.5,-277.75,-858.25,989.0,1483.5,4
2105.75,735.75,-91.75,772.75,153.75,-800.25,1297.0,1181.25,4
1745.5,1014.5,46.75,530.5,417.25,-1123.75,1671.0,692.5,4
822.25,1451.0,379.75,259.75,473.0,-1079.5,1541.75,188.0,4
-150.25,1339.75,390.0,314.0,1067.25,-1053.75,1373.0,199.5,4
-687.25,1057.75,130.0,102.25,1034.0,-1048.25,1392.75,53.5,4
-825.75,972.5,-19.0,-14.25,1010.5,-1035.0,1361.75,-789.5,4
-775.5,842.25,-286.5,-177.5,1009.5,-182.75,1328.75,-521.75,4
-956.75,759.25,-377.0,-337.0,861.25,223.5,1091.5,241.75,4
-720.5,514.75,-464.25,-167.0,776.25,-138.25,929.5,963.0,4
-193.75,415.5,-106.5,-170.25,316.75,-269.25,921.75,1618.5,4
44.75,632.75,341.75,-227.5,65.25,-68.25,875.25,1125.5,4
227.0,857.0,779.0,-322.5,534.25,-67.0,836.5,919.0,4
998.75,758.25,823.0,-103.0,872.0,-260.25,725.5,937.25,4
1292.0,611.25,-298.75,-2.5,778.25,-44.25,726.25,1042.5,4
428.25,689.0,-1168.25,29.75,581.0,567.25,644.75,750.0,4
-260.5,517.25,-1171.0,177.25,659.75,1208.0,538.0,541.5,4
-409.0,152.25,-1143.75,279.75,972.5,1801.25,412.75,339.5,4
-1670.5,-337.5,-1189.25,477.5,1258.75,2025.0,209.75,635.75,4
-2759.0,-754.5,-1117.0,708.5,1006.75,1632.25,-85.0,885.75,4
-2184.75,-807.5,-1059.25,718.75,486.25,1460.5,-35.5,916.75,4
-882.0,-1005.0,-519.5,583.25,266.25,1521.0,8.0,1475.5,4
804.5,-1285.5,414.0,531.75,128.25,946.0,12.0,1793.5,4
1168.25,-1601.25,439.75,480.25,-64.25,704.5,22.5,1296.0,4
1174.5,-1636.0,515.25,487.5,-109.75,1003.0,45.5,1280.5,4
-528.25,-1485.5,577.75,578.25,-273.0,2086.75,190.75,1873.0,4
-2080.5,-1200.0,726.0,677.75,-295.5,2591.0,292.5,2352.25,4
-2324.25,-761.0,736.0,843.5,-377.75,2581.75,405.5,2248.75,4
-2224.75,-510.75,544.25,791.25,-556.0,2575.5,512.25,2148.0,4
-5.0,-404.0,-128.75,712.75,-640.25,2615.0,558.75,2132.25,4
1923.5,-211.5,336.75,623.5,-746.25,2032.75,715.25,1852.75,4
1950.5,-283.25,655.5,584.5,-873.25,825.75,790.75,1711.0,4
1921.0,-192.0,-135.5,561.5,-1009.0,-293.75,874.25,1330.75,4
1872.0,94.0,-1015.5,502.75,-1091.25,-989.0,954.75,-62.75,4
1928.75,538.5,-959.0,373.5,-1231.75,-1792.0,664.0,-1013.5,4
542.25,630.5,-657.75,219.5,-1196.0,-1029.75,-306.0,-994.5,4
-52.25,884.5,-549.75,76.25,-1032.0,-1220.5,-790.5,-1003.5,4
60.75,902.5,769.0,-137.0,-905.25,-1979.75,-681.75,-1015.75,4
-553.75,355.0,963.5,-224.25,-954.0,-2193.5,-627.5,-806.0,4
-1821.75,-284.25,1027.5,-329.0,-1123.5,-1730.0,-627.75,-911.0,4
-888.75,-637.5,1058.0,-457.5,-1240.75,-1393.75,-595.25,-954.75,4
133.5,-736.0,1010.25,-569.75,-1284.0,-1602.0,-482.0,-711.75,4
104.5,-402.5,913.0,-670.5,-1177.75,-1538.25,-354.5,548.75,4
161.0,129.25,1184.5,-786.5,-996.0,-938.5,-258.75,271.5,4
908.0,231.25,1340.0,-911.75,-710.75,-940.75,-179.5,401.5,4
1215.75,-70.0,1159.25,-801.5,-521.25,-717.5,-161.75,24.75,4
-400.75,89.75,552.5,-717.25,-241.5,-94.25,-250.75,-25.75,4
-749.0,431.0,495.5,-661.0,274.25,-156.0,-295.5,34.0,4
-313.25,-6.25,20.75,-573.25,848.5,66.75,-362.5,129.0,4
-602.5,-378.0,351.25,-527.75,1086.0,158.25,-452.5,-29.75,4
-1130.75,-799.25,255.75,-448.5,1195.5,-940.75,-493.0,614.5,4
-1402.5,-810.75,-232.75,-394.25,1271.25,-1529.0,-273.0,1165.5,4
-688.25,-782.75,-1244.25,-331.0,1370.75,-1065.25,1276.5,1202.25,4
-65.25,-826.0,-1195.0,-248.0,1439.5,-530.0,1125.5,1340.0,4
-554.75,-620.5,-1221.75,-183.0,1517.75,-46.75,1032.25,1652.75,4
-778.5,73.25,-1205.25,-149.75,1471.0,-2412.75,1049.25,1556.0,4
-131.75,490.5,-1148.25,-136.0,1469.75,-2376.25,1080.5,7.25,4
-538.5,385.75,-1077.5,-91.75,1570.0,-2725.0,1103.25,-682.25,4
-1286.0,354.25,-1038.0,-51.0,1599.25,-2886.0,1133.25,-874.75,4
-960.75,349.25,-1028.5,-31.0,1620.5,-2093.25,1125.5,-967.5,4
-780.75,393.25,-953.0,59.75,1598.5,-1105.0,1074.25,-1138.75,4
-364.0,976.0,-899.75,132.75,1155.25,-752.0,655.75,-1215.5,4
-68.25,1185.25,879.5,168.5,733.5,-60.25,-277.25,-1189.5,4
-77.5,1059.25,1092.25,233.5,601.0,-397.25,-410.5,-1275.0,4
-57.0,415.25,1104.0,191.25,101.25,-1019.0,-18.25,-1370.0,4
-20.25,-140.25,-850.25,39.0,-295.25,-884.0,328.75,-1188.25,4
2007.25,-686.75,-820.0,-15.5,-60.25,-342.25,280.5,-508.25,4
1556.0,-942.5,-765.75,26.25,6.75,-269.5,481.75,-122.5,4
1043.5,-974.25,783.75,34.0,18.5,160.75,951.75,590.0,4
157.75,-730.75,1220.0,53.75,454.5,705.0,996.25,776.75,4
36.75,-589.75,1157.75,109.75,634.25,914.75,1000.75,995.25,4
-1704.25,-292.5,1220.0,217.5,412.75,1031.75,1070.25,1165.5,4
-1957.0,303.25,1230.5,184.5,264.0,1013.75,1148.0,1039.0,4
-1851.5,676.5,1161.0,91.75,273.25,1000.75,1389.0,828.5,4
-1331.75,813.0,1098.25,92.0,-31.0,248.75,1654.0,810.25,4
-783.5,827.5,1074.5,10.75,-296.25,-148.75,1661.25,880.25,4
-1480.5,933.75,1043.25,-29.75,-363.5,-605.25,1762.25,590.25,4
-1749.0,1035.0,756.75,-11.0,-348.0,-1090.25,1936.5,492.0,4
-1213.0,1016.75,-1040.0,-41.0,-205.75,-812.75,1785.75,362.75,4
71.0,1010.5,-1087.75,-100.75,-125.25,-505.25,1598.25,436.0,4
61.5,431.0,-1136.0,-42.5,-54.0,-323.75,1226.25,668.75,4
23.75,-888.5,-1112.5,69.5,37.75,-280.5,208.0,916.5,4
622.75,-985.25,-1063.5,128.25,99.75,-427.0,-866.0,726.5,4
803.25,-1019.0,619.25,139.25,-57.25,-393.0,-1221.25,304.75,4
161.0,-994.0,964.5,75.0,55.75,-154.75,-1441.25,13.0,4
-1322.0,-969.5,1002.0,-4.0,-47.75,560.5,-1410.75,618.5,4
-35.75,-958.75,883.0,-141.0,-95.5,1176.5,-970.5,998.0,4
-20.25,-408.25,731.25,-249.25,-816.0,1178.25,-678.5,588.0,4
-9.0,523.25,-530.75,-310.5,-1426.0,1406.5,-637.5,-67.5,4
-1983.25,1015.75,-1069.0,-254.5,-1535.0,1640.75,-641.0,-260.0,4
-1632.25,949.0,-1062.5,-166.5,-1494.5,1735.25,-765.0,-534.5,4
-241.0,911.5,-1023.0,-95.25,-1170.0,1947.75,-809.5,-961.0,4
1886.0,461.75,-891.5,-56.5,-733.5,2060.5,-826.0,-1144.0,4
1500.5,-159.5,148.25,-112.5,-561.75,1998.0,-899.25,-1050.25,4
1966.75,-613.0,-220.25,-152.0,-681.25,1719.5,-1002.5,-1033.5,4
1969.5,-915.75,-1094.0,-217.0,-690.75,1463.0,-1080.25,-976.75,4
-567.5,-1032.25,-1079.75,-140.0,-433.5,1172.75,-1073.5,-1086.0,4
-1290.25,-857.5,-1069.0,-111.5,98.0,907.5,-1095.25,-1066.75,4
-1317.25,-589.75,421.25,-76.5,2146.75,650.25,-918.25,-1144.0,4
817.25,-397.0,993.75,-31.0,1595.25,442.25,-1061.5,-953.75,4
741.25,-206.5,467.75,-48.75,1235.75,499.5,-1281.25,-359.5,4
486.75,179.0,-920.75,-86.25,937.0,682.0,-1420.0,-556.75,4
87.0,608.25,-830.0,-142.5,746.75,736.25,-1176.0,-280.25,4
118.0,555.0,-761.5,-62.0,864.0,654.0,-771.0,-95.75,4
134.75,443.75,1259.0,37.0,770.75,632.0,-661.0,-444.25,4
-851.75,375.5,1245.0,75.0,759.25,625.25,-479.75,-385.5,4
-1044.0,375.75,1136.25,23.25,1160.5,777.0,-71.75,-497.25,4
-1155.5,483.75,1102.25,52.5,1465.5,1127.5,333.0,-419.5,4
-903.75,523.25,1095.0,211.5,1711.75,1413.5,315.5,-165.25,4
-230.0,546.0,1062.5,379.5,582.5,1602.25,200.75,242.25,4
85.0,426.5,715.5,360.75,-48.5,1605.75,195.25,313.5,4
-525.5,364.5,-966.5,239.25,-264.25,1490.25,311.25,-74.25,4
-1149.5,314.25,-947.75,179.75,-705.0,1490.75,365.25,-269.75,4
-70.25,293.5,-1054.0,57.5,-1155.0,1638.0,381.0,-329.25,4
1011.0,295.5,-1228.75,-44.75,-1159.5,1842.25,347.0,-754.0,4
1541.25,362.0,-819.25,-107.75,33.0,1923.25,457.0,-1095.5,4
1278.0,707.75,784.0,-21.75,2039.75,1967.25,670.5,-922.25,4
453.75,881.5,888.0,110.0,2031.5,-29.75,928.5,-815.75,4
461.0,710.25,934.25,110.25,2040.0,-110.5,797.75,-766.25,4
267.25,263.0,975.25,93.25,1785.0,-235.75,750.25,-580.75,4
-81.25,-259.75,641.25,24.5,2036.0,-492.75,159.0,-375.0,4
-547.5,-552.75,217.25,-41.0,2024.75,-877.25,-616.25,400.5,4
-880.75,-771.5,-162.75,-0.5,1696.25,-1523.25,-857.0,559.75,4
-1100.75,-817.75,-1122.5,27.5,139.75,-2116.5,-880.75,792.75,4
587.25,-714.25,-946.75,64.25,33.75,-2119.0,-1235.75,1003.5,4
569.0,-538.75,882.25,19.25,41.5,-2054.25,-1434.5,1148.25,4
501.5,-217.25,832.5,-91.5,36.25,-2147.5,-1261.0,606.5,4
432.25,137.0,961.0,-163.25,25.5,-2438.0,-1410.25,-22.25,4
431.75,361.25,-157.0,-241.0,9.5,-2015.25,-1402.75,-17.25,4
-367.5,484.0,-23.5,-260.75,1311.5,-1329.25,-889.0,373.0,4
-1623.25,452.5,-1052.0,-460.75,2019.25,-775.25,-398.75,580.75,4
-1549.75,425.75,-1116.5,-484.0,787.75,-813.0,193.75,-1199.5,4
-1485.5,360.5,-838.5,-640.25,-263.5,-1097.0,1465.75,-1898.0,4
-1159.75,601.5,-238.25,-922.5,-615.5,-1587.75,1586.5,-1697.5,4
-452.25,865.5,1346.25,-911.75,-940.5,-1605.0,1338.75,-1019.25,4
-372.0,617.75,666.0,-894.75,-1657.0,-1345.0,1664.75,-1117.5,4
-361.75,476.5,887.5,-655.75,-1132.75,-678.5,1429.0,-1837.75,4
-617.0,531.75,465.75,-252.5,-380.5,1061.75,1296.75,-1485.0,4
86.75,664.0,607.5,-183.25,-294.75,1092.25,1215.0,-746.5,4
806.5,910.25,215.75,-69.0,-72.75,1310.0,837.25,318.5,4
873.5,780.0,154.25,-61.5,-2.75,1524.0,781.25,328.0,4
940.0,476.75,371.25,178.5,122.25,1860.25,1148.75,-1008.5,4
474.5,8.75,-252.0,447.5,257.25,2113.25,1332.25,-1606.25,4
35.5,-424.75,-327.75,605.75,345.5,1942.5,1262.5,-1712.25,4
-422.5,-749.75,-876.25,591.75,601.0,1909.75,1256.75,-1278.75,4
-433.25,-1102.0,-1209.75,559.75,955.0,2071.75,1165.0,-1244.75,4
254.25,-1224.0,-1489.0,462.5,932.0,1947.0,1098.25,-154.5,4
628.5,-1035.25,-1774.5,344.75,-1260.25,1630.5,976.0,1036.0,4
354.0,-932.25,-1852.5,611.25,-1426.5,1659.5,1005.25,509.5,4
-1512.25,-1371.5,-1211.25,829.75,-1242.0,1586.25,1067.25,299.5,4
-1849.0,-1444.75,-1771.5,666.75,-1328.75,1194.0,1147.75,-662.0,4
-1677.25,-1164.75,-1876.5,374.75,-1878.75,919.25,1186.25,-463.0,4
75.0,-1085.5,287.5,411.0,-2322.75,803.5,993.25,-7.5,4
624.75,-1016.25,509.5,499.75,-2539.0,611.25,744.0,187.0,4
850.75,-751.5,672.75,641.75,-2602.25,681.75,661.0,576.25,4
779.5,-689.5,290.0,735.5,-2631.0,603.25,587.75,1177.5,4
443.0,-505.75,769.75,689.0,-2606.75,456.0,560.25,1822.25,4
-76.0,-460.75,936.25,551.25,-2541.25,378.5,282.5,2183.0,4
-326.0,-211.75,-460.75,369.5,-2505.0,203.75,-43.0,2173.5,4
-448.75,-53.75,-681.25,230.75,-499.5,94.5,-405.75,2100.75,4
-806.5,80.0,971.5,81.0,1469.25,167.25,-491.0,1982.75,4
-637.5,189.5,1065.75,61.75,1614.0,457.25,-694.25,2273.5,4
-780.5,236.5,-905.75,171.25,1668.25,733.75,-751.75,2767.0,4
-645.5,311.25,-414.0,203.5,1686.75,720.0,-622.75,2337.75,4
-495.0,312.25,965.25,264.0,1706.75,-347.75,-725.0,1599.0,4
-397.0,363.5,862.0,281.0,1706.5,-1362.25,-753.25,1045.0,4
-191.0,497.25,965.0,248.5,1743.25,-1499.0,-798.75,-43.0,4
-47.75,651.5,1218.5,271.5,1872.5,-191.5,-871.5,-179.75,4
-56.5,707.25,646.0,168.0,1997.0,1454.75,-877.75,-335.25,4
21.75,687.5,136.5,-70.75,1680.5,1604.25,-984.25,-508.25,4
187.5,552.5,27.5,-354.5,1308.5,1301.0,-996.0,34.75,4
245.75,425.5,470.0,-432.5,1369.75,1384.0,-1057.75,-235.75,4
310.0,262.75,788.0,-421.75,914.25,695.5,-1111.5,-474.75,4
394.5,106.0,637.0,-471.5,-656.75,244.75,-1128.5,-887.75,4
330.0,-122.0,482.5,-366.0,-759.0,352.75,-1152.5,-1523.0,4
226.0,-224.25,326.5,-341.5,-975.0,660.0,-1132.75,-1754.75,4
294.5,-181.0,-16.25,-413.0,-1225.25,915.0,-1249.25,-1916.75,4
306.0,-224.75,-156.5,-383.5,-1268.0,729.0,-1338.0,-1680.0,4
297.25,-194.0,-137.25,-377.5,-1264.75,432.0,-1291.75,-1277.0,4
201.0,-199.5,-88.5,-344.5,-1212.25,226.0,-1281.25,-977.5,4
108.75,-40.0,-212.5,-444.0,-1346.5,463.5,-1310.75,-906.25,4
200.25,200.5,-468.25,-558.75,-1400.75,233.25,-1201.25,-960.25,4
198.75,342.5,-902.0,-516.25,-565.0,312.0,-1075.25,-1279.5,4
186.5,391.5,-1332.5,-388.25,267.75,4.5,-1063.0,-1156.25,4
57.25,322.75,-1349.5,-143.75,587.75,-908.5,-934.25,-795.25,4
7.25,323.25,-1248.0,-57.75,325.5,-1010.25,-793.75,-501.0,4
35.75,130.5,-944.5,-23.75,127.0,-1108.25,-674.0,202.25,4
9.75,-23.0,-743.75,79.0,-72.0,-947.0,-484.0,463.25,4
-65.5,-65.0,-328.75,200.75,-143.75,-218.5,-194.0,250.5,4
-190.25,-240.75,128.0,296.25,-185.5,428.0,71.0,190.75,4
-282.5,-389.5,341.0,329.0,-385.25,665.25,332.75,387.25,4
-275.75,-413.0,566.75,80.5,-634.0,786.0,552.75,251.25,4
-112.5,-393.25,936.5,-201.5,-499.5,949.25,693.75,650.75,4
5.25,-249.25,1148.25,-221.75,-136.5,150.0,671.75,1060.75,4
-26.0,-169.0,1298.5,-102.0,214.0,-831.0,340.0,655.5,4
-139.25,-214.25,1266.5,-31.25,107.5,-1406.75,75.75,-11.75,4
-135.0,-113.5,1136.5,-100.0,175.0,-1574.0,108.75,-879.5,4
-80.0,47.5,1023.75,-111.0,462.75,-591.5,327.25,-713.0,4
64.5,148.5,608.0,-70.75,965.0,86.75,618.5,-349.75,4
170.0,98.75,147.25,55.75,1781.5,-13.0,922.75,-161.75,4
223.75,112.5,-165.25,91.0,1986.0,-499.0,1230.5,51.5,4
175.0,149.75,-233.75,80.25,2170.5,-514.5,1327.75,-58.75,4
159.75,227.0,-242.5,48.0,2028.0,-68.5,1411.75,233.0,4
281.0,316.5,-350.25,-76.5,2022.75,-190.5,1591.5,376.0,4
329.25,360.25,-614.0,-170.75,2072.75,-1242.5,1961.75,358.0,4
357.25,321.75,-931.0,-255.25,2165.25,-1856.25,2191.75,273.25,4
325.25,191.0,-1076.0,-458.25,1981.5,-2709.0,2244.5,60.25,4
392.25,231.75,-1180.0,-567.25,1762.5,-2753.75,2047.75,-281.5,4
467.5,294.0,-1258.25,-573.0,1733.0,-2306.25,1670.5,-711.0,4
348.75,324.25,-1268.25,-450.0,1722.75,-1025.5,1092.0,-997.5,4
147.25,328.5,-1047.5,-276.0,1152.75,-409.5,616.0,-1439.5,4
133.25,209.75,-728.5,-244.75,-495.75,-537.75,441.0,-999.25,4
157.25,120.25,-394.75,-140.75,-551.25,-656.0,554.25,-708.0,4
118.5,58.25,84.0,-74.0,-746.5,-598.0,363.5,-1180.25,4
150.0,168.0,504.75,-53.25,-990.5,-870.25,386.5,-962.5,4
177.0,513.75,895.5,10.75,-1211.0,-2266.75,387.25,-366.5,4
137.25,505.25,1031.0,139.5,-1347.5,-1754.0,242.75,65.0,4
-6.25,221.25,1144.5,194.0,-1425.25,-1169.5,362.0,75.75,4
-182.25,346.25,1229.0,209.0,-1561.0,-424.75,123.75,332.0,4
-384.5,595.0,1070.5,281.75,-914.5,-143.0,335.75,339.5,4
-345.75,442.25,911.25,218.75,-604.25,-301.25,561.25,284.5,4
-367.25,-30.0,604.0,266.5,171.5,950.5,354.25,345.0,4
-485.5,-509.0,114.0,272.75,161.25,1407.0,633.5,421.0,4
-365.5,-882.75,-524.5,348.75,171.5,1438.5,674.5,368.5,4
-269.75,-985.0,-953.0,437.25,23.5,1157.75,608.25,431.0,4
-111.5,-991.25,-935.25,394.25,-53.5,967.5,1133.75,-1420.5,4
-15.25,-1043.75,-842.25,423.75,164.0,528.0,2089.25,-1197.25,4
-93.0,-1010.0,-620.25,357.75,127.5,37.0,2370.0,-1006.5,4
-176.75,-896.25,-256.25,275.25,154.25,-88.5,2471.5,-993.5,4
-247.75,-692.5,35.75,218.25,268.75,-395.75,2597.25,-1132.25,4
-227.25,-400.25,270.75,92.5,189.75,-697.25,2548.0,-1226.5,4
-103.75,49.5,99.75,-26.75,414.25,-834.75,1762.75,-1274.0,4
-34.75,263.75,-65.25,-59.5,632.75,-864.0,1013.75,-1258.25,4
-25.5,133.5,-7.0,-162.5,285.0,-507.5,621.75,-1134.25,4
-40.75,112.75,-154.0,-138.25,-211.75,-211.0,593.0,-1020.75,4
-100.0,34.0,-141.75,-63.0,-595.5,-15.75,767.5,-1087.0,4
-138.5,-131.5,-262.5,-155.5,-1366.75,-291.75,776.5,-1207.5,4
-201.75,-316.5,-330.25,-125.25,-1207.5,-1008.75,615.0,-1100.5,4
-223.75,-460.75,-149.25,-40.0,-1204.0,-1753.75,716.75,-958.0,4
-166.5,-361.0,-163.5,-96.0,-1319.25,-2011.25,697.5,373.75,4
-43.75,-222.5,-175.0,-217.5,-1389.75,-2014.75,325.25,1153.0,4
-108.0,-226.25,-12.25,-156.75,-1461.25,-1998.25,-163.0,1070.0,4
-175.0,-43.75,305.0,-149.5,-1679.5,-2011.0,-216.75,996.25,4
156.25,412.75,497.5,-114.75,-1539.5,-1950.75,-80.25,1063.0,4
392.75,685.5,537.75,-35.25,-605.5,-1766.75,210.0,1082.5,4
544.75,725.5,538.5,-265.25,242.75,-1449.5,280.0,1202.75,4
755.25,685.5,477.0,-343.0,1206.0,-790.5,-382.75,1557.75,4
420.25,417.5,-24.25,174.5,2152.75,-543.75,-1068.25,1625.5,4
-44.75,295.25,-433.5,286.5,2247.0,-922.5,-969.0,1661.25,4
-4.0,358.75,-531.0,-89.5,1941.5,-949.5,-690.0,1678.0,4
-89.25,0.75,-758.0,-172.0,2213.5,-905.25,-632.5,1622.75,4
-316.25,-344.75,-514.0,-9.0,2582.5,-820.25,-719.25,1755.25,4
-348.25,-257.5,-106.75,110.0,1997.25,-609.5,-1002.5,1860.25,4
-9.0,296.0,-11.5,-115.5,1256.25,-184.75,-1167.75,1884.25,4
23.0,362.5,-177.75,-2.5,1099.0,75.75,-1427.5,1942.5,4
-26.25,314.75,-588.75,-34.0,331.0,9.5,-1529.75,2007.75,4
79.25,439.0,-526.5,67.75,-129.0,351.0,-1539.5,2046.25,4
-91.0,429.0,-47.5,66.5,-724.25,693.5,-1551.75,2013.75,4
-232.75,317.5,143.0,-95.25,-987.25,1087.75,-1477.5,2023.0,4
-300.75,159.5,425.25,-118.75,-1361.5,1306.5,-1395.75,1881.25,4
-14.25,570.0,724.5,-306.25,-1562.5,1355.5,-1149.25,1958.5,4
145.0,581.0,985.25,-57.0,-1647.0,1273.0,-912.5,2131.75,4
192.75,357.75,1075.5,326.25,-1516.75,1040.75,-1140.25,1546.75,4
135.75,330.5,1042.75,505.0,-1348.75,892.25,-1352.5,1048.25,4
-60.5,418.0,713.5,445.0,-1479.5,785.25,-1365.5,586.5,4
-206.0,418.0,436.75,435.25,-1370.0,821.75,-1346.0,-61.0,4
-267.75,249.0,694.25,279.25,-1202.5,789.75,-1300.25,-385.25,4
-1.25,466.75,901.75,-85.5,-1031.0,851.5,-1362.25,-736.5,4
182.5,536.0,1008.75,-245.5,-714.5,832.5,-1466.25,-1116.5,4
219.0,322.75,1000.25,-403.75,-733.25,785.5,-1519.25,-1492.5,4
408.5,171.75,908.5,-744.0,-831.5,767.75,-1452.5,-1785.5,4
397.0,-69.0,346.75,-886.75,-619.25,800.25,-1498.25,-2101.75,4
107.0,-459.0,-255.25,-841.75,-486.75,805.25,-1587.25,-2132.0,4
-202.75,-938.25,-305.5,-519.75,-28.0,864.75,-1664.75,-2171.75,4
-252.25,-1072.25,-230.75,-241.0,286.0,910.75,-1727.25,-1693.75,4
-62.5,-827.0,-110.75,-235.5,531.5,792.75,-1697.75,-1521.25,4
-13.0,-717.5,-70.5,-81.5,793.75,561.25,-1615.75,-1514.75,4
-133.75,-861.75,-165.75,-209.0,862.25,441.75,-1384.25,-1763.25,4
-106.75,-1011.25,-356.0,-408.5,1373.5,578.25,-1114.5,-2153.75,4
86.5,-871.5,-540.0,-360.75,1616.75,633.75,-951.0,-2109.0,4
70.75,-707.75,-777.75,-236.75,1659.5,752.0,-610.5,-2058.25,4
124.0,-752.0,-833.0,-137.5,1527.25,886.0,-203.75,-2001.75,4
260.75,-654.5,-847.0,-114.25,1223.0,1194.25,-110.75,-1710.5,4
315.0,-389.0,-931.75,-192.25,1199.5,1493.0,-89.5,-1217.0,4
357.75,-65.0,-961.25,-254.25,1234.5,1680.0,-113.5,-742.5,4
382.5,200.75,-911.0,-274.5,1134.0,1862.5,-266.25,-409.25,4
420.0,305.75,-824.25,-312.0,1068.5,1693.75,-488.5,-584.0,4
327.0,309.75,-820.25,-255.75,1296.25,1511.75,-609.25,-817.75,4
284.25,401.75,-1068.75,-68.5,1682.25,1393.5,-625.25,-268.5,4
304.75,825.0,-1497.0,88.75,1658.5,1269.0,-676.25,-210.75,4
313.75,1081.0,-1220.5,58.5,1454.25,1178.25,-475.0,292.25,4
386.75,1081.0,-254.75,126.75,1209.5,1071.0,-156.5,391.0,4
436.75,1146.75,149.5,80.75,944.75,921.75,-6.75,908.25,4
176.5,1236.25,318.5,57.75,1080.0,806.5,312.75,1021.75,4
-90.5,1159.0,393.0,205.25,1134.25,703.0,705.25,1033.75,4
223.5,407.25,272.5,108.25,923.25,567.5,889.5,751.5,4
355.5,-624.25,144.5,-289.75,204.75,400.75,847.0,482.5,4
315.75,-451.5,-440.0,-505.25,-85.75,184.5,874.25,409.0,4
343.25,-308.5,-432.5,-450.75,-288.5,-292.25,1319.75,705.5,4
127.25,-367.25,105.25,-342.5,-181.75,-345.5,1481.5,988.75,4
17.5,-592.5,220.75,-159.75,147.0,-189.25,1368.0,1188.0,4
-14.75,-515.5,554.25,-54.75,-91.75,-395.75,1601.25,1373.0,4
131.75,-144.5,613.25,-17.75,572.25,-229.75,1608.5,1258.75,4
68.25,43.0,980.25,-163.0,1239.75,-86.5,1534.25,1221.25,4
75.25,161.5,1254.0,-238.25,1425.25,-138.5,1519.25,1120.75,4
400.5,78.0,674.5,-91.0,1368.5,-316.5,1357.25,739.0,4
459.75,-1.25,-129.75,-41.25,1444.5,-675.0,1405.5,475.5,4
263.75,-79.25,-420.75,111.25,1070.25,-351.0,1228.25,188.0,4
134.5,-48.25,-804.75,329.25,438.25,84.75,822.25,-395.5,4
-719.25,-505.75,-1208.75,813.5,393.0,629.0,101.75,-477.75,4
-1300.5,-610.0,-1207.25,876.0,287.0,749.75,120.5,-417.5,4
-1240.5,-407.25,-485.0,833.0,-66.0,735.75,167.75,-290.5,4
-993.25,-404.0,173.25,799.25,-951.25,742.0,-100.5,-224.5,4
-869.25,-292.75,539.5,595.5,-1570.0,358.5,250.75,-85.75,4
-585.75,-32.5,375.0,370.25,-1157.25,91.0,565.0,-74.75,4
-628.75,-31.25,-116.5,335.0,-700.0,-355.0,942.0,40.75,4
-453.5,153.5,-362.25,237.0,-756.0,-501.75,1072.75,41.0,4
-439.25,198.5,-502.0,341.25,-563.75,-271.0,927.0,-83.75,4
-406.0,397.75,-402.25,526.0,-230.25,-345.25,634.75,156.5,4
-353.25,521.75,-52.25,465.25,-325.25,-624.0,176.5,305.5,4
-267.75,340.25,119.5,326.75,-131.25,-905.75,-137.0,250.75,4
-394.25,13.0,-285.75,300.25,41.25,-916.75,-490.5,312.0,4
-369.25,73.75,-1161.5,161.0,176.0,-947.25,-856.25,385.25,4
-247.5,179.5,-1203.75,120.75,345.25,-1019.25,-1033.0,158.0,4
-134.0,44.25,-1213.25,-462.5,148.25,-1120.25,-1180.75,43.5,4
415.75,346.75,-1067.0,-986.0,279.0,-998.0,-1597.5,46.75,4
307.0,336.75,-1129.5,-503.0,851.25,-458.5,-2197.0,266.0,4
-394.5,-251.5,-978.25,190.0,801.75,-193.0,-2174.25,824.75,4
-373.25,-124.75,-735.25,460.5,578.0,-236.75,-1770.5,1294.75,4
-306.75,-154.0,-280.0,895.0,187.0,-371.75,-1535.5,1316.5,4
-337.75,-394.0,844.75,999.25,-621.25,-1005.25,-1180.75,1045.5,4
-47.5,-301.5,1105.75,552.75,-992.25,-1151.5,-770.75,601.75,4
-104.5,-524.75,1510.75,114.5,-1349.25,-1244.0,-473.25,146.0,4
182.0,-504.25,1014.75,-377.0,-1877.5,-1653.75,-260.75,-488.75,4
365.25,-408.5,816.75,-514.0,-1246.5,-1442.25,-210.0,-643.0,4
585.25,19.25,1108.5,-848.75,-656.5,-1116.0,-118.5,-101.5,4
764.25,68.25,1094.25,-1086.25,53.75,-495.0,-268.5,182.75,4
95.5,-335.0,1014.75,-796.0,851.0,643.5,-361.25,-383.75,4
-470.75,-521.75,1065.75,-520.0,678.5,934.75,-87.5,-765.5,4
-251.25,-256.5,1217.0,-425.0,122.75,621.5,513.25,-615.5,4
-365.0,-211.5,1344.0,634.25,159.0,286.5,1108.0,-393.5,4
-586.0,-269.5,1254.75,899.25,-259.25,-331.5,1596.25,-61.0,4
-547.5,-94.75,1182.25,870.5,-307.5,-473.25,1823.25,275.5,4
-701.25,-192.75,833.75,816.0,-120.0,-596.0,1986.0,130.0,4
-591.5,-159.5,-643.75,709.25,641.0,-687.25,2102.75,123.5,4
-725.25,-200.75,-1027.25,697.25,607.75,-712.5,2177.75,124.75,4
-1058.25,-118.75,-952.25,486.75,202.5,-897.25,2210.25,135.5,4
-1248.25,-59.75,-784.5,443.25,118.5,-1008.5,2199.75,162.0,4
-991.0,60.5,-42.5,241.5,19.75,-1213.75,2292.75,232.0,4
-413.5,114.5,49.5,97.0,242.25,-1322.75,2352.75,301.0,4
197.0,283.0,-12.25,-222.75,559.5,-1473.75,2260.25,290.75,4
854.5,656.0,8.0,-651.0,900.5,-1278.5,2242.5,204.0,4
1090.25,603.25,-1129.5,-412.25,896.0,-950.5,2233.75,105.25,4
569.5,224.0,-1110.75,49.25,210.5,-616.25,2177.25,100.5,4
405.25,189.5,-1027.5,-5.75,-854.75,-337.25,1797.5,-186.0,4
505.0,228.0,-1067.0,20.25,-1572.75,-247.75,1291.0,-571.25,4
444.5,84.25,-1057.25,-136.5,-2442.0,-457.5,553.5,-585.0,4
781.0,242.0,-799.5,-566.5,-2462.5,-1006.25,-181.0,-861.25,4
887.5,332.5,-247.0,-693.75,-1858.0,-1636.5,-974.0,-1706.25,4
880.5,378.0,889.25,-871.75,-1080.5,-2098.0,-1167.0,-1980.0,4
711.75,395.5,838.25,-918.25,72.0,-1840.5,-1001.75,-1797.25,4
538.0,519.0,805.25,-887.25,232.25,-1463.5,-976.25,-1195.75,4
557.25,494.5,785.25,-773.5,706.75,-914.5,-1122.0,-655.0,4
330.75,416.25,761.75,-796.5,1201.5,-526.5,-1188.0,-196.75,4
155.5,475.0,567.25,-953.25,-147.0,-1334.0,-1261.75,5.0,4
61.75,307.75,-23.5,-934.5,-56.5,-1274.0,-1387.75,21.0,4
100.5,236.0,340.5,-818.75,86.25,-919.75,-1525.75,46.75,4
230.75,385.25,822.5,-632.75,-84.75,-361.75,-1418.0,232.0,4
-45.25,537.25,983.5,-436.5,-406.5,-146.5,-968.0,602.0,4
-318.0,565.5,1117.75,-373.5,-531.0,-331.75,-675.5,952.5,4
-118.75,632.5,1210.75,-408.25,-393.5,-869.5,-763.25,1326.75,4
104.75,629.25,969.75,-571.75,-399.5,-1168.5,-750.5,1653.0,4
261.75,598.25,207.0,-635.0,-358.5,-1141.5,-710.25,1843.0,4
524.5,437.75,-301.25,-437.0,-834.75,-825.75,-637.0,1853.0,4
782.25,150.0,-777.5,-425.0,-1585.0,-240.75,-491.5,1732.0,4
696.75,-95.25,-902.75,-471.0,-1270.5,-108.75,-632.0,1605.0,4
479.5,-267.0,-1070.0,-213.0,-1132.25,-356.5,-836.0,1574.5,4
645.5,-361.25,-1331.75,210.75,-983.75,-576.5,-1083.5,1527.5,4
712.75,-312.75,-1243.25,420.0,-1065.5,-624.75,-1248.75,1576.75,4
-55.25,-219.25,-895.0,516.25,-1144.75,-731.75,-1352.25,1524.75,4
-529.5,-312.0,-854.5,841.0,-1226.25,-884.25,-1495.5,1309.25,4
-724.75,-319.0,-1262.25,1197.25,-1204.25,-699.25,-1492.0,809.75,4
-1006.25,-265.25,-1422.5,1272.75,-910.0,109.75,-1464.75,-415.0,4
644.75,-188.0,-1100.25,935.75,-605.5,492.75,-1368.75,-1712.5,4
296.75,-225.25,532.75,640.25,-291.5,376.0,-1085.0,-1603.75,4
-54.25,-386.25,644.0,243.25,-36.75,872.75,-907.5,-1193.5,4
-354.0,-470.0,614.0,-40.0,279.75,875.75,-908.25,-1082.5,4
-780.0,-448.25,670.25,90.25,425.5,971.75,-954.25,-1385.75,4
-1056.25,-400.75,377.75,103.25,399.75,1170.5,-1199.5,-1655.5,4
-1147.25,-422.0,7.5,-166.75,368.75,1194.0,-1186.25,-1977.5,4
-1275.5,-344.75,-218.0,-404.0,335.5,875.0,-926.0,-1817.75,4
-1134.25,-273.25,-223.25,-98.0,310.5,-410.75,-649.5,-946.75,4
-927.75,-274.0,-412.25,61.25,290.75,-272.75,95.75,589.75,4
-883.75,-260.0,-433.75,398.75,273.0,478.75,899.5,865.5,4
-785.25,-257.25,-397.0,756.25,204.75,1066.0,1049.5,699.25,4
-600.25,-167.25,-591.5,552.25,178.75,1809.5,1049.25,19.5,4
-359.75,-69.5,-1096.25,434.5,222.0,1954.5,1035.75,-773.75,4
-31.25,-169.75,-1001.75,178.0,254.25,1587.25,1184.25,-574.75,4
153.5,-290.5,-443.25,-111.75,202.25,1003.5,1223.25,55.75,4
42.5,-285.0,-192.75,-103.75,149.0,914.0,1148.5,-94.75,4
-138.75,-179.5,-96.75,453.75,9.75,1654.0,1079.0,-82.5,4
-321.5,-149.75,21.75,892.5,-179.0,2164.5,1081.5,-57.75,4
-377.25,-149.25,207.75,968.5,-250.0,2091.75,1128.0,-591.0,4
-357.75,-62.0,351.25,788.75,-203.5,1717.75,1110.75,-1047.5,4
-299.75,-7.75,467.5,447.75,-241.25,812.5,1094.75,-795.0,4
-324.75,50.0,296.75,299.5,-203.5,345.25,1080.25,-329.5,4
-456.75,58.5,88.25,167.25,-96.5,13.75,869.5,-81.25,4
-698.0,61.75,183.75,179.5,39.75,-2.5,540.0,342.0,4
-939.25,89.25,186.25,92.5,227.25,-90.25,236.5,449.75,4
-987.5,77.0,135.75,-18.75,546.5,152.75,37.25,-14.5,4
-485.25,102.5,104.75,-167.0,786.5,222.75,-31.5,145.0,4
121.75,111.75,76.25,-304.75,884.5,110.75,176.75,181.25,4
518.5,61.0,33.25,-258.5,1045.25,252.75,831.0,355.25,4
612.75,-0.75,-42.0,-207.0,1046.0,-56.25,1371.75,306.75,4
116.75,-52.25,-123.75,-99.0,1061.0,352.0,1280.5,167.0,4
53.75,-180.0,-171.5,-25.0,1006.25,93.0,928.0,-118.75,4
258.0,-317.75,-243.75,164.0,952.0,44.75,751.25,-662.5,4
-182.5,-587.0,-254.75,410.5,1214.75,578.75,562.5,-485.0,4
-794.75,-705.5,-218.5,472.0,1343.75,697.0,675.0,-312.25,4
-527.0,-533.0,-167.0,596.5,1028.5,652.0,915.25,97.25,4
-507.25,-435.25,-69.75,587.25,453.5,394.25,676.75,617.5,4
-341.75,-349.75,-71.75,645.5,227.5,250.0,585.25,848.25,4
107.25,-231.25,-52.5,696.5,253.5,-206.5,402.0,726.25,4
-334.25,-265.75,-11.25,405.0,377.5,-171.5,124.75,741.25,4
-444.5,-112.0,-8.25,80.75,418.5,-380.0,-38.75,1290.25,4
-118.25,-66.0,26.5,-102.5,477.0,-544.25,-229.5,1796.5,4
512.0,-62.0,16.75,-273.0,445.0,-502.5,-290.75,2226.5,4
1009.75,-49.0,102.25,-233.75,440.75,-345.75,-581.25,2245.5,4
924.75,3.25,223.75,-159.0,502.25,-412.75,-854.75,2142.75,4
702.25,127.25,261.0,-249.25,569.5,-576.5,-1038.75,2130.25,4
53.75,159.0,239.5,-476.75,624.25,-376.0,-1022.75,1985.75,4
-464.25,273.5,247.0,-734.75,678.0,-231.25,-875.25,2024.5,4
-1131.75,373.0,239.25,-869.0,785.75,-46.0,-946.75,2118.5,4
-968.25,452.25,193.5,-731.75,1023.5,-122.75,-1169.0,2091.25,4
-742.0,456.75,146.0,-578.5,1171.75,-95.0,-1230.25,1893.5,4
-473.75,446.75,143.0,-419.75,1142.0,-90.0,-1037.0,1736.75,4
-68.25,349.5,163.0,-192.5,1169.5,-2.5,-1071.0,1791.25,4
-814.0,233.25,94.25,-86.75,948.25,92.25,-1351.75,1812.25,4
-1789.25,246.5,88.75,-6.5,444.5,152.5,-1277.75,1680.25,4
-1528.0,259.75,111.0,-28.0,2.0,202.5,-874.25,1566.5,4
-1769.0,250.75,117.25,-40.75,-209.5,96.5,-720.5,1051.25,4
-1613.0,264.75,241.75,-45.5,63.5,196.25,-603.0,37.5,4
866.25,390.75,328.75,-188.0,304.5,411.75,-627.0,-805.75,4
1412.0,471.25,372.0,-470.0,164.25,631.75,-850.25,-1088.0,4
1794.25,523.0,462.0,-639.5,162.25,660.25,-861.25,29.5,4
1803.75,449.75,479.0,-725.75,-126.75,543.25,-784.75,1228.0,4
1503.5,212.0,297.75,-690.5,-790.75,183.25,-921.5,1227.25,4
1388.25,33.25,5.5,-487.5,-964.25,-137.5,-1160.75,904.0,4
239.25,-87.5,-222.5,-299.0,-663.5,-136.75,-1301.5,58.75,4
-589.25,-235.25,-202.75,239.5,-482.5,163.75,-1362.75,-535.0,4
-728.0,-222.5,16.5,687.0,-764.75,444.25,-1283.0,-1011.5,4
-590.0,-43.5,52.0,729.75,-746.25,523.5,-585.5,-1166.75,4
-412.5,36.5,20.25,781.5,-724.75,626.5,603.25,-1341.75,4
-318.0,120.0,-3.0,354.5,-622.75,329.0,1249.5,-1457.5,4
-170.0,128.5,-33.0,-100.25,-605.75,169.25,1449.25,-1517.5,4
-104.0,119.5,-8.5,-430.75,-466.75,506.25,1381.5,-1525.5,4
-9.0,98.5,-103.0,-838.75,-125.5,938.0,1182.0,-1449.25,4
-129.25,37.75,-156.0,-924.75,231.25,1049.0,1044.0,-1418.25,4
-84.5,55.75,-97.25,-979.0,337.5,612.0,794.5,-1569.5,4
-119.75,118.75,-36.75,-1053.25,465.75,793.0,505.25,-1686.75,4
-96.75,213.75,142.5,-1119.25,401.25,593.75,275.75,-1742.75,4
-74.5,204.5,131.25,-783.5,146.25,-83.75,201.5,-2291.25,4
-96.5,150.0,-310.5,-55.5,-292.25,375.25,350.5,-2290.75,4
-166.75,20.75,-531.25,153.5,-485.25,840.25,616.0,-2192.25,4
-251.0,-12.5,-252.75,143.25,-353.0,752.25,1008.75,-2098.25,4
-300.75,143.5,-58.0,116.0,38.75,192.5,1168.25,-1933.5,4
-333.0,210.25,56.0,123.0,654.75,-168.25,1196.75,-1106.5,4
-224.5,136.75,184.0,114.0,1039.5,-200.5,1408.75,-1496.5,4
-153.25,109.5,86.0,-17.75,753.5,-508.0,1373.75,-1695.75,4
-135.0,181.75,-88.0,-103.25,763.0,-914.0,1248.5,-1676.0,4
-113.0,119.25,-82.5,-106.75,628.25,-1188.0,1274.0,-1205.0,4
15.75,187.75,162.5,-118.5,-244.75,-1544.75,1626.5,154.5,4
376.25,349.75,692.25,-164.25,-650.0,-2034.0,1954.25,471.75,4
882.75,396.0,884.0,-235.75,-818.5,-1846.75,1860.0,349.75,4
1218.0,371.0,493.5,-55.75,-567.0,-1379.0,1616.75,-234.75,4
1097.0,82.75,34.25,516.5,419.0,-564.0,1065.75,-724.0,4
50.75,-959.25,-486.0,1224.25,510.5,40.0,313.5,-878.0,4
-207.5,-1051.75,-596.5,1297.25,373.75,-10.75,530.75,-763.25,4
55.0,-775.0,-400.5,820.75,858.5,129.0,558.0,-487.5,4
51.5,-549.0,-757.25,456.75,598.0,-319.75,600.25,-376.0,4
493.25,331.0,-554.0,-492.75,562.5,-1019.25,1063.0,-108.25,4
657.25,639.0,-305.75,-590.5,819.0,-1079.0,1150.75,-398.75,4
378.25,520.5,216.5,-396.5,625.75,-748.75,1357.75,-514.5,4
520.75,539.0,740.25,-265.75,116.0,-413.5,1272.5,-345.25,4
338.5,535.0,715.5,-160.25,353.75,101.25,1108.75,-274.25,4
-157.75,424.0,604.75,-110.0,23.0,1537.5,1139.25,-366.75,4
-671.0,185.25,241.0,5.5,-1130.5,1837.0,1299.5,-586.75,4
-621.25,232.25,78.5,147.75,-1125.75,1552.75,1574.0,-642.25,4
-450.75,211.25,143.5,208.75,-689.0,1414.25,1600.5,-578.5,4
-375.0,114.0,274.75,201.25,-553.75,1455.25,1467.5,-610.5,4
-225.0,57.0,358.75,237.5,45.0,1212.5,1349.0,-824.75,4
-308.5,28.5,327.25,364.5,854.5,710.75,1169.0,-970.25,4
-313.5,-147.75,284.75,446.75,1266.75,355.25,618.25,-748.75,4
-664.0,-678.5,-180.75,775.0,1190.25,705.25,-26.0,-630.25,4
-991.75,-810.25,-1179.75,1101.25,1111.25,639.75,-169.5,-1291.25,4
-936.0,-587.25,-1282.25,979.25,1073.0,575.75,84.0,-1227.25,4
-879.5,-487.75,-1072.0,756.5,1003.5,907.25,31.5,-1074.75,4
-986.75,-541.0,-800.25,642.5,2908.0,1537.25,-399.25,-1077.5,4
-950.25,-502.75,-216.75,391.5,2756.0,2586.0,-691.5,-725.5,4
-1058.0,-572.0,-232.0,626.75,519.75,2465.75,-982.25,-814.25,4
-895.75,-522.5,-256.75,523.0,320.5,2225.75,-722.5,-609.0,4
-658.5,-723.75,-262.0,146.25,116.75,2216.0,-859.75,-414.5,4
-365.75,-405.5,-289.75,-486.25,1943.0,2166.0,-966.25,-303.0,4
107.25,-143.25,-54.75,-935.0,1815.75,2054.5,-1100.25,95.5,4
340.75,-169.5,-5.5,-600.5,1734.5,2058.75,-1088.75,174.0,4
602.25,27.25,150.25,-301.5,1636.0,1491.5,-1018.5,202.25,4
604.5,10.25,11.75,-404.75,1532.5,670.25,-977.0,211.75,4
514.0,-150.25,116.75,-130.75,900.5,16.75,-1022.0,62.75,4
331.5,-249.25,102.5,-44.5,539.75,-287.75,-1192.0,-298.0,4
227.0,-309.25,-17.5,-162.5,345.25,-403.0,-1236.75,-598.75,4
280.25,-280.5,-57.25,-69.0,-369.0,-448.75,-1320.25,-718.5,4
431.25,37.25,-181.75,14.0,-640.5,-526.25,-1257.5,-739.5,4
544.25,193.75,-101.75,67.75,-640.75,-76.75,-1177.0,-456.25,4
495.0,214.25,5.25,-225.75,-651.0,526.75,-1128.5,-59.75,4
461.25,283.25,-60.25,-213.5,-650.75,758.25,-1088.5,550.75,4
328.5,244.0,-169.0,-84.0,-641.5,691.5,-1193.5,1222.0,4
138.25,188.0,-234.25,6.25,-2630.0,514.75,-1081.0,1231.75,4
-50.0,114.5,-307.25,-45.75,-2605.25,-518.25,-901.25,1176.0,4
-99.25,94.75,-279.75,-131.0,-2549.5,-1189.25,-720.75,1147.0,4
-81.75,129.75,-312.25,-79.0,-2522.25,-1427.0,-433.75,1100.0,4
42.5,196.75,-146.5,-290.0,-2546.75,-1407.5,-492.75,1075.75,4
247.0,235.75,125.5,-523.25,-2544.75,-1504.0,-743.25,1096.5,4
302.25,277.5,169.25,-332.5,-2538.5,-1641.25,-833.5,1076.0,4
316.25,325.25,37.75,-139.0,-2551.0,-1272.0,-695.25,999.0,4
274.75,293.25,80.5,-365.0,-2560.0,-1078.5,-619.5,934.0,4
233.0,225.25,326.5,-708.75,-2548.75,-782.25,-781.5,580.5,4
214.75,160.25,642.75,-1122.75,-2555.5,-1194.75,-999.5,354.5,4
49.75,115.75,1010.0,-576.5,-2555.0,-1965.5,-1183.75,1299.0,4
-138.5,107.5,1060.75,315.25,-2412.0,-2149.75,-1174.25,1423.5,4
-158.5,156.0,862.25,336.75,-2056.25,-2021.0,-961.0,909.25,4
-61.75,150.25,515.5,280.75,-1754.25,-1533.5,-815.25,448.5,4
-71.75,142.75,273.5,118.75,-1497.25,-1264.5,-762.75,-166.75,4
-235.5,134.25,63.5,55.75,-1189.25,-1166.25,-796.25,-501.75,4
-315.75,-42.5,-85.0,-85.75,-898.25,-886.25,-929.5,-761.5,4
-297.75,-192.0,-15.75,-153.0,-599.0,-631.25,-886.0,-607.75,4
-254.25,-185.5,13.5,-92.5,-323.0,-445.0,-824.25,-290.75,4
-156.0,-79.5,63.5,36.0,-279.0,-457.25,-836.0,-143.25,4
1.0,-64.5,111.75,187.5,-275.0,-562.25,-739.0,262.0,4
461.0,-271.25,337.5,-58.25,-511.0,-944.0,-395.0,138.25,4
1183.25,-158.5,625.75,-402.0,-617.25,-956.75,-401.75,459.25,4
1208.25,367.0,414.0,-496.25,-430.75,-524.75,-357.0,890.25,4
975.0,-76.5,150.25,-442.25,-48.0,-20.75,-359.25,1003.25,4
424.25,-430.0,-86.5,63.25,616.75,735.5,-1369.0,1552.75,4
-609.25,-227.0,-1061.5,779.75,682.25,1386.5,-1448.0,1585.0,4
-608.5,-40.25,-984.25,822.0,348.0,1317.5,-1451.75,1315.0,4
-414.0,191.75,-727.75,804.5,466.25,1152.0,-2010.75,1177.75,4
-569.5,-50.75,-826.25,850.0,369.0,632.75,-2192.0,903.75,4
-259.25,188.5,-600.0,587.5,239.75,90.0,-2264.5,609.75,4
-326.5,50.5,-550.5,685.5,468.0,823.75,-2041.75,405.5,4
-203.0,82.25,-441.75,417.75,277.25,1037.75,-1133.0,213.25,4
-172.0,97.75,-302.5,429.25,279.0,844.0,-364.75,156.25,4
-202.75,4.5,-309.5,307.0,202.75,1015.75,624.5,56.0,4
-202.25,96.0,-151.0,245.0,672.0,935.0,1028.25,40.0,4
-294.75,-1.0,-58.0,91.25,1584.25,51.5,972.75,63.75,4
-123.75,99.0,32.0,-18.75,1995.5,-834.25,1069.5,67.75,4
-104.25,30.75,-1.25,-152.5,1897.25,-1043.0,1259.75,-120.75,4
-44.75,81.0,78.5,-223.75,1420.25,-1165.0,1423.0,-286.0,4
7.25,18.5,108.75,-46.75,945.75,-1185.5,1563.5,-540.5,4
42.0,18.75,121.75,-88.0,387.0,-1212.25,1637.5,-835.0,4
-150.0,-3.25,50.75,-19.0,-100.25,-1228.5,1535.5,-870.25,4
-215.0,-4.25,12.5,-35.5,-122.25,-1243.5,1421.25,-769.25,4
-368.75,12.25,167.5,-38.5,-82.0,-1128.25,1355.75,-498.5,4
-424.25,-19.5,226.0,56.25,-108.0,-966.0,1259.25,-200.25,4
-34.0,4.75,279.25,7.75,-65.25,-840.5,1087.25,-7.5,4
-118.0,-28.75,228.0,-270.75,-51.5,-768.0,896.5,85.5,4
-473.5,-3.25,131.25,-469.75,-36.0,-701.25,686.5,184.0,4
-290.5,-39.0,132.75,-443.75,-382.5,-457.5,676.75,223.5,4
269.25,-14.5,168.5,-431.25,-918.0,-522.75,830.75,211.0,4
936.75,-12.25,152.0,-624.5,27.5,-1103.75,1118.5,-25.25,4
1580.25,4.75,123.5,-811.25,42.5,-1628.0,1155.75,-301.25,4
1351.75,32.5,194.0,-604.0,66.5,-1755.75,822.5,-512.75,4
758.25,34.0,351.25,-153.75,476.25,-1531.5,754.5,-857.25,4
230.5,57.5,380.5,242.25,815.0,-1540.5,523.0,-799.75,4
-358.25,46.25,348.75,362.5,1148.25,-1530.5,380.25,-761.75,4
-473.5,52.5,236.75,148.5,1494.25,-512.0,777.0,-711.0,4
-416.25,40.25,90.75,-261.25,1726.25,266.75,1153.75,-589.5,4
-295.75,24.0,202.5,-276.0,1727.75,752.25,823.25,-586.25,4
-145.0,7.75,276.75,170.5,1657.25,1034.5,-753.25,-695.5,4
-75.75,7.25,197.5,222.75,1640.25,1189.75,-613.75,-606.75,4
-24.75,-3.75,126.25,17.75,1603.0,1021.5,-452.5,102.25,4
424.75,-56.0,48.75,-74.75,1634.0,402.25,-990.75,595.0,4
599.25,-45.75,-47.0,-164.5,1724.25,205.75,-1048.5,984.5,4
454.0,-12.0,-26.25,112.5,1814.25,625.75,-734.0,1267.75,4
306.5,-31.0,-201.25,238.25,1959.25,104.0,-558.25,1319.5,4
-175.75,-54.75,-611.0,-7.5,2028.5,-170.25,-347.75,1314.5,4
-567.25,-34.25,-817.0,-130.25,545.5,-512.25,-1175.0,1299.25,4
-773.25,14.75,-842.25,-169.0,97.0,-126.5,-1811.25,1238.25,4
-410.25,16.75,-656.5,-85.0,87.0,466.25,-1282.5,1269.25,4
-106.0,-27.0,-385.75,-217.5,77.75,1051.25,-439.25,1199.25,4
-192.75,-63.5,-140.5,-431.0,70.0,1407.5,86.25,1071.75,4
-429.0,-33.75,150.75,-415.5,-14.25,1263.25,305.75,689.25,4
-375.75,-153.75,621.25,-548.75,-410.75,793.0,450.0,126.75,4
50.0,-422.0,1287.5,-569.5,-934.0,-50.75,378.5,126.75,4
-63.0,46.25,1226.5,-554.5,-1250.75,260.0,1345.75,-28.25,4
-118.75,609.0,952.5,-589.75,-1590.25,344.5,1669.5,-230.75,4
-151.25,610.0,894.75,-450.25,-1798.75,-485.5,1240.75,-296.0,4
-115.0,550.5,604.0,-57.75,-2001.25,-838.0,920.0,-280.75,4
72.25,504.25,332.25,-306.25,-2121.75,-2084.75,724.25,-400.5,4
72.25,530.25,48.75,-466.0,-46.0,-2267.25,732.25,-653.5,4
-157.0,404.0,-51.75,-239.75,112.5,-1443.0,575.75,-668.0,4
-162.25,341.0,-99.0,-194.25,254.75,112.5,141.5,-304.0,4
-146.75,267.0,-264.0,113.25,1057.25,181.25,-148.75,-172.5,4
-73.0,134.25,-342.75,152.5,2096.25,330.0,71.25,-67.0,4
208.75,12.75,-582.5,-61.5,2611.5,348.0,187.25,-49.75,4
777.75,-103.75,-733.5,125.0,2724.75,168.25,323.75,-165.75,4
552.75,-267.5,-824.25,786.0,2732.0,291.5,784.5,381.0,4
-342.75,-956.0,-770.25,1057.5,2835.5,163.75,1116.25,791.75,4
-261.5,-836.5,-637.75,907.25,2375.5,-80.75,986.5,837.25,4
-79.75,-472.5,-567.75,920.0,1497.25,-143.5,735.25,841.75,4
-298.75,-596.75,-456.25,768.5,1057.0,-28.25,945.5,773.0,4
-196.0,-296.0,-460.25,645.5,584.5,-396.25,1210.0,677.5,4
-488.0,-308.75,-362.0,557.0,388.75,-326.5,1198.0,626.25,4
-455.5,-242.0,-340.25,475.25,292.5,-476.0,1139.75,322.5,4
-503.0,-287.5,-283.5,737.25,225.25,-532.25,998.0,287.25,4
-466.75,-302.25,-263.5,593.5,168.0,-433.75,795.5,131.5,4
-411.0,-111.5,-199.5,416.5,236.75,195.0,722.5,147.0,4
-529.0,-68.5,-102.25,209.0,297.75,976.25,948.0,53.5,4
-400.75,54.5,-54.25,5.5,109.75,1121.75,1204.25,291.25,4
-449.5,23.25,-172.0,-237.25,-501.75,1074.75,1358.75,287.0,4
-338.5,74.75,-244.25,-404.0,-1159.0,976.25,1440.75,-467.75,4
-314.25,77.25,-42.5,-39.25,-1183.0,966.0,1599.75,-986.25,4
-40.5,79.0,70.0,116.5,-1143.25,995.25,1677.75,-1209.5,4
-50.0,81.75,119.75,111.75,-1138.5,1038.25,87.75,-1276.5,4
-81.25,45.25,167.75,-86.75,-929.75,1149.0,-590.0,-778.75,4
241.75,108.75,220.0,-1059.5,-951.25,1235.5,-459.75,-882.5,4
635.0,206.0,326.75,-1145.0,-812.5,1322.0,-406.0,-864.75,4
868.25,212.25,350.0,-629.25,-615.5,1312.5,-491.25,-736.0,4
822.0,255.0,280.5,-418.5,-770.0,1236.0,-487.5,-927.75,4
867.75,353.25,255.75,-122.25,-905.5,963.0,-561.25,-1634.5,4
784.5,631.0,372.5,-253.5,-1034.0,442.75,-654.0,-2071.25,4
681.0,679.0,624.5,-381.75,-896.0,336.0,-736.75,-1716.75,4
617.5,523.25,692.75,-379.5,-511.0,480.25,-819.5,-1678.0,4
211.75,412.25,650.5,-556.25,-204.25,469.0,-1137.5,-2092.5,4
19.75,246.25,528.75,-601.0,219.0,643.25,-1730.75,-1672.25,4
329.5,199.25,310.0,-586.0,624.0,795.5,-1831.0,-1345.0,4
697.75,134.5,86.5,-391.5,606.75,-705.0,-1518.25,-1023.5,4
1022.0,102.75,-124.0,-202.25,386.5,-1250.75,-1309.75,-679.0,4
989.75,138.0,-363.5,-103.25,94.5,-1240.75,-1236.25,-958.0,4
617.75,11.5,-486.75,-45.5,-148.25,-1359.25,-1481.75,-1380.5,4
262.75,-57.0,-493.25,-43.5,-234.75,-1342.0,-1877.5,-1284.25,4
284.5,-114.0,-497.75,-30.5,-128.0,-1227.25,-2057.0,-1124.25,4
572.75,-209.75,-333.5,-64.0,88.0,-1128.0,-2197.75,-1572.5,4
468.75,-285.0,-220.75,15.25,275.25,-918.5,-2114.25,-2072.75,4
35.75,-222.25,-170.5,25.25,366.75,-606.75,-1829.25,-1779.0,4
-404.0,-207.5,-44.25,-15.25,306.75,-628.25,-1707.25,-1394.75,4
-795.25,-232.75,25.5,64.25,149.5,1142.5,-1664.25,-1220.0,4
-1426.75,-280.0,-3.25,159.0,-45.0,1371.25,-1516.5,-928.25,4
-1875.0,-297.0,-19.5,191.25,-175.75,1406.75,-1256.25,-880.5,4
-2299.0,-366.0,-16.0,174.0,-266.75,1329.75,-1219.0,-635.75,4
-2333.0,-444.75,36.0,157.75,-351.75,1346.5,-1220.25,-402.25,4
-1938.75,-361.5,81.5,297.0,-356.0,1329.25,530.75,-403.0,4
-819.0,-262.75,8.75,331.5,-506.25,1295.0,619.25,-587.0,4
59.75,-184.75,-36.0,74.25,-572.0,1309.5,600.75,-388.0,4
656.0,-173.5,-15.75,233.5,-428.75,452.0,444.25,820.75,4
977.25,-131.5,45.0,632.5,-252.25,-406.5,492.25,724.5,4
1125.0,-89.0,11.5,656.75,-332.25,-656.75,821.25,918.75,4
865.0,-68.5,-77.0,673.25,-511.5,-67.0,1046.5,877.25,4
724.0,-25.75,-113.0,736.75,-682.75,160.25,1171.25,614.25,4
1023.25,9.75,-191.25,688.75,-1077.0,-382.5,1604.25,925.5,4
721.75,11.25,-257.0,667.5,-1199.0,-449.0,1865.5,921.0,4
522.0,-74.5,-276.75,623.0,-1134.5,-502.75,1334.75,918.5,4
159.5,-224.75,-343.75,606.5,-1007.5,-346.75,670.5,950.5,4
-768.0,-395.0,-363.5,715.25,-1039.75,-229.5,330.5,894.5,4
-969.5,-396.75,-242.0,927.5,-1174.25,-633.25,-199.0,829.75,4
-589.75,-184.5,-181.0,811.25,-1471.25,-922.5,-1316.0,1024.0,4
-180.25,-5.5,-134.0,373.75,-1829.75,-1098.25,-978.75,1010.25,4
55.5,148.25,-2.75,-86.5,-1904.5,-571.25,-287.75,944.75,4
316.75,209.25,24.25,-593.0,-1847.5,-34.5,133.0,1188.0,4
237.0,94.5,82.25,-809.5,-1707.0,233.25,-1.25,1361.25,4
-0.5,64.5,262.5,-766.75,-1701.0,317.0,653.75,1416.25,4
-425.75,-1.25,367.25,-597.5,-1700.0,43.0,2212.25,1386.25,4
-923.5,-95.75,458.5,-560.0,-1715.0,32.5,2667.0,1213.25,4
-762.75,-123.0,432.25,-531.75,-1877.25,-3.75,2272.5,1078.75,4
-479.75,-112.0,372.25,-420.5,-2016.25,-89.25,1846.25,843.5,4
-273.25,58.5,320.75,-440.75,-2126.0,-136.5,1611.5,699.5,4
-599.75,89.0,215.25,-372.0,-1762.75,115.5,1285.5,813.75,4
-662.5,30.75,204.25,-171.25,-1349.0,344.5,1197.5,823.25,4
-202.5,12.25,245.25,96.25,-1063.25,342.25,1026.75,693.25,4
83.25,-41.5,330.0,114.25,-640.75,478.25,782.25,662.0,4
114.0,-61.5,358.75,10.5,1209.5,610.75,530.25,645.25,4
-92.0,-39.25,243.5,-69.75,1815.0,160.75,510.75,600.5,4
-39.0,-35.5,64.0,-112.25,1853.5,-1164.5,438.0,606.5,4
146.75,-42.75,-16.5,19.5,1923.0,-1985.5,159.25,438.0,4
265.0,-33.0,12.25,161.5,1989.5,-1745.5,48.5,116.75,4
496.0,-3.5,-25.25,230.5,1994.75,-1375.5,17.5,524.5,4
353.75,31.75,-133.0,73.25,2010.5,-750.5,-64.0,986.0,4
-135.75,22.0,-216.25,-102.0,2002.0,-360.0,-17.25,1076.75,4
-373.25,9.75,-171.25,-96.75,1995.25,-289.0,153.0,1530.75,4
-314.25,-19.0,-109.75,-51.5,1967.5,-453.25,234.25,1731.0,4
-340.0,-33.5,-64.75,-194.0,1948.25,-749.5,227.25,1573.5,4
-540.0,-89.75,-3.75,-345.5,1885.0,-770.0,-1547.0,1767.75,4
-736.0,-421.5,26.25,-273.25,1681.75,-409.5,-1690.0,2375.0,4
-1031.25,-534.25,-33.25,189.5,1230.75,-574.0,-1857.0,2314.75,4
-585.75,-457.25,-375.75,350.5,792.75,-736.0,-1654.75,2364.5,4
-19.5,-423.0,-410.0,240.0,419.75,-767.75,-1463.0,2433.25,4
58.0,-396.0,-337.5,387.5,124.0,-902.0,-1387.25,2331.25,4
41.75,-304.75,-309.0,351.75,49.25,-966.0,-1089.0,1734.5,4
26.0,-204.0,-207.25,178.0,-61.0,-878.25,-913.75,860.0,4
21.5,-51.25,-211.75,206.5,-719.0,-894.5,-558.5,641.0,4
-197.0,-31.5,-172.75,81.0,-1421.5,-1036.5,-386.25,882.25,4
-546.5,55.5,-131.75,40.5,-1974.75,-831.25,-495.75,944.0,4
-461.25,84.25,-175.25,-31.25,-2293.25,-486.25,-646.5,1108.25,4
-384.0,146.5,-137.5,-27.75,-2273.0,-415.75,-785.75,939.0,4
-170.0,180.25,-169.5,-145.75,-2026.0,-493.0,-880.75,792.5,4
217.75,161.0,-124.5,-272.5,-1893.25,-504.5,-729.75,508.0,4
584.5,168.5,-67.0,-417.0,-1843.75,-178.5,-474.5,481.0,4
1128.25,149.25,6.25,-427.25,-1877.75,-444.75,-278.25,493.75,4
1879.0,162.5,83.5,-428.0,-2037.75,-708.5,-69.75,100.5,4
2293.25,132.0,119.0,-472.75,-2218.0,-343.0,-138.5,-398.5,4
1964.5,148.0,212.0,-343.75,-2367.0,-213.25,-234.75,-140.75,4
1350.75,152.5,307.0,-269.25,-2273.25,829.0,-114.0,606.0,4
792.25,198.5,291.0,-224.75,-2253.75,1289.25,334.5,477.75,4
69.25,263.0,267.25,-315.25,-2257.75,1012.75,796.25,102.75,4
-560.25,311.75,230.5,-344.25,-2160.75,1240.25,1158.5,76.5,4
-920.25,352.25,195.25,-252.25,-1332.25,1050.0,1503.75,564.75,4
-924.5,366.25,178.25,-96.25,266.25,769.0,1512.25,923.0,4
-298.75,400.25,84.5,-51.25,497.0,683.75,1483.75,644.75,4
488.75,393.75,36.5,-131.75,675.0,357.75,1456.0,732.75,4
1066.25,359.25,19.5,-190.75,776.0,129.75,1417.0,635.0,4
1349.75,303.5,9.25,-307.25,828.5,172.0,1371.0,652.75,4
1112.25,240.75,38.75,-341.0,873.75,871.75,1334.0,693.0,4
702.5,198.75,112.0,-170.0,958.75,1470.25,1309.5,566.75,4
384.75,215.75,199.0,-34.5,908.0,1515.75,1421.0,328.5,4
369.75,454.0,486.0,-319.25,635.25,991.0,1598.75,-857.0,4
407.5,705.25,735.0,-471.5,536.25,789.75,1513.5,-2243.0,4
290.75,630.0,676.25,-552.75,540.5,1217.0,1407.5,-2233.5,4
269.25,519.0,551.25,-586.5,475.0,1183.0,1417.0,-2178.25,4
271.75,510.25,526.25,-524.75,340.75,1262.5,1405.0,-1980.75,4
182.75,441.5,262.5,-508.0,139.0,1387.5,1389.5,-1775.25,4
144.75,442.75,209.0,-344.5,89.75,1319.0,1271.0,-1583.25,4
160.75,315.75,17.25,-66.0,259.25,1436.25,1197.0,-1460.75,4
-99.0,178.5,-80.5,-62.25,391.75,1390.75,1128.5,-1371.0,4
-399.5,81.25,-156.75,131.5,635.0,1434.5,1058.25,-1116.25,4
-352.75,1.5,-212.25,377.75,772.25,1197.5,1074.25,-964.25,4
-167.5,-31.75,-234.0,554.75,963.25,987.0,1075.0,-708.75,4
-99.25,-85.5,-296.75,517.0,1010.25,904.5,1105.0,-641.75,4
-39.25,-108.25,-341.0,403.25,898.75,1068.25,1089.0,-518.0,4
-188.25,-163.25,-398.0,487.0,-78.25,1261.75,1089.75,-400.75,4
-459.75,-170.0,-362.75,472.25,-26.5,1184.5,1054.0,-526.25,4
-541.0,-226.0,-374.5,258.25,901.25,1238.0,1024.5,-581.0,4
-678.0,-313.0,-439.75,-31.0,1887.0,1416.75,1065.25,-561.75,4
-602.25,-395.5,-512.25,-158.0,2388.25,1489.25,1201.0,-455.25,4
-166.5,-370.0,-503.0,-181.75,2360.75,1297.25,1212.5,-479.0,4
154.25,-288.75,-506.5,-149.25,2173.0,1179.25,1079.25,-464.0,4
151.5,-297.75,-549.5,102.0,2054.5,1181.25,781.5,1747.25,4
-813.75,-697.25,-538.75,450.0,2231.25,1295.75,624.75,2333.5,4
-1499.25,-785.5,-559.25,436.25,2190.25,859.5,611.25,2356.25,4
-1449.25,-690.25,-598.25,385.25,1654.25,531.25,558.75,2140.0,4
-1195.75,-732.5,-509.25,419.75,398.0,484.5,707.5,2140.25,4
-943.75,-529.75,-212.5,329.25,-1181.0,849.25,828.0,1701.75,4
-283.0,-317.5,4.0,489.5,-1025.75,418.5,688.75,1668.0,4
-219.75,-312.25,130.25,339.75,-1023.0,585.75,622.0,1419.75,4
206.75,-168.5,77.5,281.5,-569.0,763.5,309.0,1274.75,4
32.75,-293.0,-49.25,489.5,229.25,440.25,142.0,1234.25,4
85.25,-117.75,-280.25,229.75,-135.5,181.5,136.5,1070.75,4
474.75,-58.25,-517.25,302.5,-788.25,418.75,54.75,1122.5,4
348.75,-51.5,-337.0,309.25,-1550.0,147.75,102.25,1018.75,4
421.75,-11.75,-134.75,254.5,-1603.25,-463.25,86.25,1084.75,4
476.75,-28.25,69.0,226.25,-1256.0,-864.5,132.75,-885.75,4
421.25,59.25,280.25,146.5,-643.0,-791.5,176.0,-919.5,4
47.0,36.5,315.5,178.75,-521.25,-770.0,312.5,-1215.75,4
-18.75,110.25,374.5,-2.75,-453.0,-784.75,500.5,-1277.25,4
-181.25,133.0,452.75,-206.5,-325.5,-860.0,717.75,-1135.0,4
-248.5,222.75,556.25,-443.5,-260.5,-1034.0,854.5,-1159.0,4
-449.75,125.25,577.0,-355.5,883.5,-1131.5,328.5,-1134.75,4
-420.25,97.75,622.75,-382.75,1234.75,-1262.5,-11.25,-939.5,4
-223.25,123.0,701.25,-436.0,855.5,-1249.75,-133.5,-841.75,4
-174.0,154.75,685.0,-462.25,140.25,-1274.25,-685.75,-1144.25,4
60.0,209.5,586.75,-321.5,246.75,-1237.25,-819.25,-1278.75,4
173.75,57.5,454.25,-323.0,1324.5,-1131.0,-833.5,-985.5,4
231.0,-59.25,224.5,-257.5,2236.5,-1094.0,-747.5,-911.5,4
61.75,2.25,21.5,-319.25,2184.75,-1010.75,-610.0,-1011.75,4
-365.0,92.0,-76.0,-532.5,1735.5,16.0,-539.75,-1009.5,4
-753.75,107.25,-173.5,-629.75,906.5,659.75,-409.75,-1070.25,4
-974.25,105.25,-215.0,-673.75,-140.75,842.0,-388.0,-956.75,4
-1074.75,6.25,-256.25,-413.75,-774.0,887.0,-491.75,-1047.5,4
-179.75,113.75,-173.5,-466.0,-529.0,896.75,-728.5,-1173.0,4
311.25,87.5,-123.75,-157.0,287.5,1032.25,-1029.25,-1203.75,4
350.25,-29.25,-112.0,92.75,187.25,1106.5,-961.5,-1237.5,4
769.75,47.5,-73.25,-3.5,-138.75,68.5,-771.0,-1209.75,4
784.5,37.25,-80.5,206.0,-252.5,-841.5,-726.25,-1167.5,4
742.75,-58.0,-161.75,454.25,-236.75,-830.75,-768.75,-1120.5,4
753.75,-85.25,-290.75,490.25,-74.0,-770.75,-820.75,-1174.25,4
679.25,-91.25,-382.75,453.5,284.5,-744.75,-868.75,-1242.75,4
436.75,-54.0,-330.5,205.5,-1617.0,-777.75,-826.5,-1415.75,4
382.75,64.75,-178.5,8.25,-1520.0,-790.25,-830.75,-1463.5,4
-283.5,95.25,-120.25,8.25,-1524.5,-759.25,-816.25,-777.25,4
-470.75,105.5,48.25,-77.5,-1639.0,-724.25,-862.25,22.25,4
-769.25,82.5,165.25,31.25,-1616.5,-672.75,-1026.5,580.25,4
-906.0,136.75,196.75,-7.5,-1783.5,-662.75,-546.0,803.25,4
-833.0,165.5,161.5,-139.25,-1887.25,-667.0,918.75,983.0,4
-827.5,157.75,104.75,-210.25,-1968.0,-714.25,937.5,1110.0,4
-613.25,233.75,115.25,-319.5,-2210.75,-834.0,1100.0,1099.0,4
108.5,411.5,140.0,-444.5,-2508.5,-1041.0,1381.25,990.25,4
954.0,657.0,234.75,-405.0,-2554.25,-1289.5,1706.0,888.5,4
1593.0,601.0,352.5,-358.0,-2562.5,-1580.25,1792.25,806.75,4
1937.25,534.75,562.0,-360.5,-2444.25,-1639.5,1750.5,963.0,4
1797.25,563.5,593.75,-357.75,-2064.25,-1429.5,1677.0,1272.25,4
551.75,439.75,464.5,-364.25,-1469.5,-1374.25,1533.75,1430.0,4
-877.75,268.0,522.25,-127.75,-758.5,-1269.0,1330.5,1434.0,4
-1205.5,182.75,467.25,-107.5,-645.0,-911.5,1179.5,1252.75,4
-844.5,193.5,259.0,-94.25,-665.25,-915.5,1092.0,1040.75,4
-901.5,175.75,162.25,251.75,-561.25,-616.5,1060.5,951.0,4
-400.25,84.0,65.5,240.75,364.25,-200.0,950.75,930.0,4
278.0,-5.5,-64.25,138.75,1634.25,392.75,840.5,898.0,4
830.5,-30.0,-139.75,-9.25,1842.0,1196.5,834.25,886.75,4
883.25,-140.25,-83.25,53.0,1916.0,1803.25,605.75,1135.75,4
474.0,-641.5,-354.0,490.75,2047.75,2575.75,-110.0,1772.5,4
137.5,-857.5,-878.0,755.25,1938.25,2698.25,-100.0,1715.0,4
-63.75,-759.25,-815.5,677.75,2036.25,2542.25,22.5,1419.25,4
-435.0,-745.0,-602.5,668.0,2285.0,2447.75,-5.5,1399.75,4
-1156.0,-713.0,-780.0,771.25,2067.5,2065.5,-221.5,1105.75,4
-1361.0,-444.5,-599.0,521.25,2122.5,1418.25,-434.5,431.5,4
-1644.0,-423.5,-554.25,434.0,2006.0,603.25,-779.5,936.75,4
-1902.75,-291.75,-350.75,304.0,1948.75,432.75,-886.25,899.0,4
-2066.25,-293.0,-258.5,143.25,2044.25,526.0,-1128.0,885.75,4
-1547.75,-189.5,-153.0,27.0,1917.25,747.25,-1105.0,790.25,4
-842.25,-175.0,-65.25,-102.25,1489.75,1044.75,-1058.75,841.0,4
-489.75,-208.25,-121.5,-158.75,1269.25,1509.5,-956.5,807.75,4
-384.25,-180.25,27.75,-13.75,1239.75,1624.5,-919.5,844.75,4
-260.25,-112.5,-110.0,132.5,1330.25,1389.75,-838.75,822.25,4
269.25,27.75,17.25,272.25,1591.0,1044.0,-673.75,862.25,4
575.75,42.0,55.25,271.75,1629.75,656.25,-591.25,877.25,4
296.25,25.25,49.5,77.25,1450.75,-40.0,-628.5,888.25,4
-236.0,-17.75,34.75,-127.5,1151.5,-0.75,-603.25,942.5,4
-193.25,41.25,-43.0,-282.75,990.0,-105.75,-431.25,956.0,4
343.5,72.25,-40.25,-311.5,612.25,-564.25,-518.25,981.5,4
622.5,77.5,-27.0,-287.25,331.25,-695.0,-763.25,1009.25,4
1023.75,41.25,106.75,-222.5,252.5,53.0,-994.5,1091.75,4
1311.5,6.5,71.5,-276.25,263.75,846.75,-918.0,1117.75,4
1306.0,-69.75,28.0,-309.5,-35.25,1031.5,-679.75,1183.25,4
1284.0,-131.75,21.25,-354.0,-274.25,1090.25,-553.25,1268.75,4
1253.75,88.5,73.0,-284.5,-326.0,1044.75,-686.75,1295.0,4
1260.0,267.25,-158.75,-198.75,-597.25,1173.75,-794.0,1305.0,4
1246.75,319.75,-302.25,-174.0,-885.0,1429.5,-513.0,1286.25,4
1245.75,283.0,-240.25,-214.5,-1148.25,1148.75,-304.0,1312.5,4
1183.0,148.5,-342.0,-386.75,-1258.5,786.5,-504.5,1341.5,4
570.75,12.0,-474.25,-464.5,-1318.5,686.5,-654.5,1321.0,4
-121.0,-118.0,-742.75,-523.5,-1485.0,225.25,-523.75,1257.25,4
-498.75,-40.25,-847.0,-183.0,-1553.25,32.5,-653.0,1224.25,4
-517.5,98.75,-440.75,21.5,-1278.0,466.0,-747.5,1265.25,4
-462.0,71.5,217.0,-410.75,-1083.75,618.0,-797.5,1323.0,4
-355.5,36.0,371.5,-652.0,-984.25,828.25,-876.75,1301.5,4
-512.5,47.25,529.75,-178.75,-968.5,1160.25,-714.0,1170.25,4
-783.75,83.25,774.75,160.75,-1163.25,984.75,-844.75,991.5,4
-967.0,90.25,808.75,-41.25,-1333.0,995.25,-783.0,933.25,4
-1125.75,159.0,861.25,-230.75,-1339.0,540.75,-264.75,1036.25,4
-1286.25,355.5,803.0,-315.0,-1140.75,131.75,-279.25,1100.25,4
-818.0,452.25,828.0,-43.5,-916.25,518.25,-592.0,1072.25,4
-127.25,434.5,786.5,131.5,-546.75,173.25,-794.5,1041.25,4
111.0,304.0,528.25,325.25,-420.75,-587.0,-1122.5,972.25,4
247.0,182.0,193.5,482.0,-618.0,-546.25,-1197.0,834.25,4
29.0,99.0,99.5,577.75,-797.5,-240.0,-954.75,657.75,4
-97.25,-28.5,107.0,634.0,-927.5,-358.0,-1295.25,517.75,4
-225.5,-101.0,-1.75,423.0,-681.5,-854.75,-1761.75,427.5,4
-316.5,-225.75,5.75,288.5,-44.25,-1063.25,-1261.0,343.0,4
-267.0,-368.5,-49.25,136.0,244.5,-752.75,-1082.0,228.75,4
-296.25,-385.5,-253.5,-158.0,398.0,-1054.75,-1122.5,130.5,4
-170.5,-346.75,-314.5,-652.25,419.5,-1601.5,-531.5,-253.75,4
152.5,-484.25,74.0,-1034.5,-3.75,-1714.5,407.25,-805.75,4
471.75,-163.25,363.25,-769.75,128.5,-1379.0,482.5,-860.25,4
510.5,870.75,278.5,-510.0,380.75,-624.0,18.75,-1377.75,4
619.25,933.75,152.25,-465.0,503.0,134.25,-869.5,-2468.25,4
655.5,763.75,206.25,-397.75,839.25,517.75,-1431.75,-2514.0,4
426.0,734.75,64.75,-165.75,982.5,612.75,-1186.0,-2308.0,4
355.0,592.5,110.75,-92.0,850.25,-114.5,-1140.75,-2104.25,4
77.75,523.0,-281.75,-247.75,33.0,-436.0,-1221.0,-2124.5,4
-259.25,318.25,-780.75,-257.75,-740.0,-255.75,-804.0,-2010.0,4
-475.75,231.25,-1154.0,9.0,-596.25,-113.25,-9.75,-1955.0,4
-289.25,206.25,-1044.5,-9.5,-606.25,-542.75,365.25,-1958.25,4
-179.5,228.5,-574.75,304.75,-517.25,-1059.5,336.5,-1878.25,4
-142.5,388.75,-379.5,563.0,-432.0,-1033.75,259.5,-1830.75,4
-95.0,366.5,-226.75,454.25,-296.5,-738.75,426.0,-1769.75,4
-235.5,188.75,14.5,464.0,-240.0,-528.5,679.0,-1755.75,4
-313.75,39.0,550.25,340.75,-328.5,-248.0,670.25,-1736.75,4
-404.75,61.75,721.75,100.5,675.25,-260.0,503.25,-1778.25,4
-349.5,71.25,679.5,-4.75,1389.5,-409.75,265.5,-1765.25,4
-370.75,10.0,646.5,44.75,1721.75,-56.25,-172.0,-1722.5,4
-360.75,-136.0,616.0,228.0,1768.5,504.5,-486.5,-1601.25,4
-326.5,-53.75,578.25,409.25,1888.0,523.25,-635.25,-938.75,4
-322.0,128.5,594.25,461.75,1394.25,170.75,-865.5,-387.75,4
-226.25,103.5,358.75,589.5,1276.5,131.75,-806.25,26.75,4
-186.0,4.0,168.75,720.25,1737.5,485.25,-693.0,361.25,4
-84.75,-182.0,-134.0,507.25,2346.25,544.25,-149.25,510.0,4
179.5,-342.25,-472.75,225.5,2505.0,161.5,-144.25,500.25,4
536.75,-354.0,-711.5,236.75,2492.25,-103.0,164.75,163.75,4
677.25,-307.25,-1054.75,526.75,2452.25,803.25,534.25,-0.75,4
235.0,-457.25,-1260.75,826.0,2559.25,1935.25,1224.25,396.5,4
-860.0,-1024.5,-1197.5,703.5,2718.25,1991.75,1654.25,655.25,4
-809.0,-1109.75,-1033.75,644.25,2567.5,1080.0,1708.5,616.75,4
-525.25,-1137.0,-985.25,658.25,2130.25,-205.75,1139.75,642.75,4
-608.5,-1249.0,-1093.75,563.75,1566.75,-1108.75,509.0,638.75,4
-509.5,-956.0,-1132.25,462.25,1141.25,-1376.75,745.0,646.5,4
-466.5,-816.0,-1108.0,380.5,1089.5,-1293.75,753.75,872.0,4
-365.0,-545.25,-1048.0,138.0,1048.25,-413.25,604.5,711.25,4
-228.5,-402.0,-1120.0,36.5,767.75,255.75,578.25,556.0,4
-354.5,-628.5,-1109.25,45.0,284.25,674.0,554.75,239.0,4
-242.0,-582.5,-1088.5,-3.5,-21.5,1199.75,127.5,203.5,4
-279.0,-429.25,-1017.75,35.75,-460.5,988.25,8.75,336.25,4
-183.75,-116.5,-44.5,26.0,-570.25,316.5,95.0,171.0,4
-202.5,37.75,937.5,-16.25,-553.5,133.5,155.0,-751.0,4
-131.0,89.25,1085.75,-181.0,-557.5,275.25,345.75,-2205.25,4
-149.0,32.75,1060.0,-460.5,-553.25,760.5,305.0,-2294.75,4
-137.5,93.75,1174.75,-311.0,-576.5,879.5,390.25,-2444.75,4
-93.5,188.5,1295.0,-76.5,-824.25,1001.5,-45.25,-2527.5,4
-85.0,280.75,1230.25,34.25,-1203.5,1005.75,-399.75,-2579.75,4
-38.0,561.0,1158.0,-78.25,-1334.0,530.25,-228.75,-2549.0,4
-68.75,815.75,1225.5,-91.75,-1266.5,322.5,34.25,-2438.75,4
-89.0,792.5,1314.0,79.25,-1139.25,-7.0,186.75,-2303.25,4
-181.25,385.0,1055.5,-20.5,-1004.0,-369.5,495.0,-2295.75,4
-211.0,562.0,649.5,-119.25,-263.5,-603.5,579.25,-2183.5,4
-191.5,1081.25,361.5,-306.25,685.0,-976.75,-131.25,-1895.25,4
-135.75,1140.75,119.25,-266.75,560.0,-1162.75,-652.25,-1611.0,4
-83.5,811.75,-2.75,-184.25,499.75,-746.25,-583.75,-1325.25,4
-7.25,378.0,-266.0,14.0,290.0,-181.25,-571.0,-1108.0,4
115.0,-138.0,-417.0,75.0,197.0,-30.25,-533.75,-825.0,4
207.5,-682.5,-634.0,-182.25,207.0,-141.5,-445.75,-521.0,4
262.75,-968.25,-751.0,58.5,113.25,-319.5,-432.25,-107.25,4
211.5,-1121.25,-744.25,48.75,-29.75,-318.25,138.5,91.0,4
70.25,-1267.5,-848.25,-218.0,-40.75,-727.25,1158.75,104.5,4
-40.25,-1264.25,-837.25,-356.0,-77.75,-1415.0,964.0,112.0,4
-27.25,-1038.5,-764.25,-625.25,-235.5,-1591.25,952.25,205.0,4
69.0,-834.25,-758.0,-849.0,-276.0,-1541.75,769.5,266.0,4
249.5,-449.75,-831.0,-653.5,-75.75,-635.25,544.75,179.25,4
315.5,-65.75,-1065.0,-357.5,-72.5,-89.75,568.75,938.5,4
320.5,41.75,-1218.0,-381.25,-915.0,219.75,463.75,1852.25,4
309.25,80.25,-356.25,-295.5,-1601.0,437.75,487.0,1767.75,4
233.0,172.5,841.75,-360.75,-1279.0,505.0,670.0,1742.25,4
200.75,491.75,594.5,-497.25,-1093.5,-15.75,865.25,1807.25,4
159.25,846.75,314.25,-430.25,-653.0,-268.25,863.25,1876.0,4
114.0,1043.0,380.5,-364.75,-352.5,-458.5,642.75,1931.5,4
67.75,1267.5,513.5,-378.75,-174.25,-987.25,451.25,1904.75,4
49.0,992.5,524.25,-511.75,101.25,-1003.0,230.5,1865.5,4
99.5,626.75,517.25,-406.25,832.75,-75.5,652.5,1827.0,4
216.5,644.0,691.0,-158.0,755.75,574.75,1107.75,1796.5,4
309.5,501.75,1149.25,16.75,722.75,102.5,963.0,1814.25,4
292.5,394.0,1404.0,113.0,711.75,-269.0,1299.25,1863.0,4
206.5,24.25,1351.75,109.25,685.0,108.75,1785.75,1964.0,4
51.5,-178.5,921.25,156.25,668.5,11.75,1829.5,2063.75,4
-107.0,-114.75,-120.0,180.75,633.25,-240.75,1937.5,2075.5,4
-139.25,82.25,-793.25,56.0,615.5,90.75,2296.25,2086.5,4
-46.75,290.25,-1063.0,-118.75,595.5,412.5,2440.25,2085.5,4
-62.0,220.0,-1026.75,-243.5,567.5,454.25,1599.0,2073.25,4
-101.0,426.0,-1132.0,-76.75,485.25,459.5,689.75,2099.5,4
-72.25,714.75,-1265.25,211.5,421.5,843.25,387.5,2130.0,4
-164.5,927.0,-1912.5,232.5,337.75,1083.25,-107.75,2153.25,4
-283.0,766.5,-2107.75,193.25,273.25,1053.75,-585.5,2169.75,4
-305.0,841.25,-2137.75,232.75,201.75,1042.25,-477.5,2179.0,4
-175.5,976.75,-686.5,281.75,170.25,286.75,-298.0,2152.0,4
-30.5,722.5,145.25,95.0,201.5,-653.5,-277.75,2137.0,4
1.0,-280.5,43.0,-106.75,417.25,-1584.0,-676.0,2001.25,4
10.0,-976.0,-78.0,-139.5,788.25,-1753.25,-922.75,1360.25,4
40.25,-973.0,-37.75,-114.25,1098.0,-182.75,-1021.75,754.0,4
107.0,-978.5,-1447.0,-129.75,1455.0,684.5,-608.25,626.75,4
205.75,-763.5,-1979.75,-158.75,1838.0,1128.25,494.25,594.5,4
257.5,-597.0,-1912.75,-188.0,2078.5,1082.5,383.25,498.5,4
249.75,-324.5,-1692.5,-195.25,2085.25,1761.0,2.5,348.75,4
365.75,65.0,64.75,25.75,1824.5,2018.5,-342.0,32.0,4
415.5,153.5,1944.0,24.25,1532.25,1576.25,-353.5,-145.75,4
419.5,481.5,1916.5,-166.5,1297.5,1135.0,-327.75,-156.0,4
505.25,746.0,1899.0,-268.25,1111.75,317.0,-338.5,-158.0,4
507.5,887.0,1903.75,-303.5,970.0,-390.25,-235.75,-157.5,4
421.25,706.25,1575.75,-396.0,726.5,-1187.75,-718.25,-149.5,4
211.25,-318.5,1157.25,-432.75,486.5,-1677.5,-1757.25,-159.25,4
15.75,-977.0,933.75,-92.5,139.75,-2221.75,-1579.25,-136.0,4
11.25,-880.5,717.0,98.25,-240.0,-1881.5,-1580.75,-93.5,4
205.75,-125.5,433.0,131.25,-538.75,-1221.75,-1611.75,-66.5,4
329.75,396.0,-551.0,520.5,-846.25,-1208.25,-1599.5,-39.5,4
318.5,830.5,-2125.0,829.0,-1101.0,-1189.0,-1618.75,-46.5,4
283.5,1226.25,-2297.5,705.75,-1268.25,-1111.75,-1637.25,-52.75,4
279.0,1355.5,-2139.25,473.25,-1308.75,-113.75,-1579.25,-54.25,4
296.25,1245.0,-1988.25,293.0,-1321.25,718.75,-1533.0,-87.0,4
201.0,812.75,-1237.0,-14.25,-1310.25,953.5,-1462.5,-113.5,4
149.0,454.0,-1718.25,-621.25,-1269.0,854.25,-1361.0,-148.75,4
134.25,433.25,-1494.0,-1083.0,-1089.5,-568.5,-1199.5,-194.0,4
44.25,410.5,505.0,-1017.75,-792.0,-996.75,-1056.25,95.0,4
-26.75,416.75,888.25,-705.75,-326.75,-1292.25,-898.25,273.75,4
-32.25,716.75,1498.5,-673.0,157.25,-1924.75,-796.75,247.5,4
-51.0,1141.5,1986.75,-636.75,82.5,-1551.25,-854.25,263.0,4
-90.0,1307.25,1983.5,-434.5,50.25,-436.0,-895.25,354.25,4
-61.5,672.75,1985.75,-271.5,106.0,-390.0,-948.75,325.0,4
-12.5,-821.0,1947.5,-152.25,43.0,-771.5,-990.5,359.0,4
29.75,-724.75,1919.5,-120.75,35.5,-1338.75,-520.5,507.25,4
-2.25,-653.75,1870.25,82.75,-26.5,-1017.5,-20.75,574.25,4
-51.75,-616.5,479.75,298.25,-64.25,-813.5,-31.5,710.75,4
6.0,-607.0,-750.75,409.0,-75.0,-1079.5,-157.25,685.0,4
42.25,-772.0,-1246.75,686.5,-154.0,-529.25,23.75,263.5,4
-32.75,-911.25,-186.75,636.75,-169.25,105.0,107.75,195.0,4
-44.75,-630.5,145.25,497.5,-157.5,480.75,450.75,99.75,4
12.25,-516.25,-86.0,437.5,-166.0,722.75,804.0,-334.5,4
53.25,-560.25,-303.0,418.25,-204.75,632.25,1137.0,-189.5,4
17.0,-251.0,-1151.5,652.25,-1099.5,489.75,1502.75,293.0,4
-10.5,79.0,-1506.0,611.5,-1832.5,115.5,1538.5,271.75,4
-14.25,440.75,-1774.0,190.0,-2310.75,-12.75,1589.0,244.75,4
-111.25,270.25,-1945.25,-293.25,-2347.5,-265.0,1720.0,-243.0,4
-252.75,208.5,-1998.0,-26.25,-2337.0,-330.25,1758.5,-769.0,4
-308.75,119.25,-1962.25,302.5,-2326.25,425.0,1529.75,-635.0,4
-221.0,335.0,-1733.5,-41.5,-2226.5,1386.0,1395.0,-933.75,4
-152.75,1192.5,-952.25,-258.25,-2177.25,1954.5,1536.75,-1013.5,4
-106.5,1403.0,-695.0,-479.5,-2213.0,2161.25,1655.75,-1187.75,4
-153.25,1361.25,-1470.5,-518.75,-2247.5,1933.5,1767.75,-1084.0,4
-224.0,945.25,-1188.0,-492.0,-2301.25,1127.25,1921.75,-816.5,4
-314.25,347.75,10.25,-247.5,-2403.75,-218.75,2050.5,-780.75,4
-417.5,-803.5,161.25,82.5,-2468.5,-1206.5,2131.5,-719.5,4
-418.25,-1915.5,149.25,98.25,-2526.25,-1661.5,2121.5,-704.0,4
-349.0,-2041.25,109.0,159.5,-2525.75,-1414.75,2044.75,-493.75,4
-286.75,-1632.25,88.0,102.0,-2504.0,-1448.5,1589.75,-660.75,4
-256.75,-1264.75,56.75,94.5,-2569.5,-1589.25,1271.75,-622.5,4
-125.5,-587.0,1093.75,35.75,-2528.75,-1268.0,689.0,-1015.75,4
-10.0,877.0,1916.5,-14.5,-2390.25,-1032.25,227.0,-1042.5,4
49.5,1267.75,1935.75,-38.75,-2373.25,-605.25,-141.5,-1054.0,4
91.0,1398.75,1952.75,-126.25,-2316.75,-1052.25,-193.75,-1058.0,4
85.0,1569.5,1772.25,-89.25,-2201.25,-855.75,-241.75,-1058.0,4
50.5,1507.0,693.25,-46.5,-2137.5,-430.25,-308.0,-1049.25,4
-7.0,532.25,-110.75,40.5,-2068.25,-756.25,-430.0,-855.5,4
2.0,-401.0,-107.5,68.75,-1958.0,-1282.25,-580.75,-625.25,4
5.0,-618.25,-82.0,30.0,-1899.5,-1329.5,-636.75,-945.5,4
3.25,-593.25,-1452.25,25.75,-1845.75,-578.75,-695.75,-1483.0,4
59.5,-466.25,-2034.25,32.25,-1802.75,-440.25,-705.25,-1730.75,4
142.75,-515.25,-1957.0,-73.0,-1834.25,-356.75,-682.5,-1848.75,4
254.75,-48.0,-1933.25,-192.75,-1787.5,-29.0,-766.75,-1830.75,4
260.25,562.75,-2022.75,-255.25,-1747.5,420.0,-841.25,-1722.5,4
195.5,1136.75,-2076.0,-385.0,-1768.5,574.0,-887.75,-1213.25,4
218.75,1054.25,-1983.25,-503.5,271.75,1448.5,-899.0,-930.5,4
191.75,731.0,-1879.0,-473.25,416.5,1690.25,-923.0,-957.5,4
132.5,88.5,-149.5,-316.0,674.5,1429.5,-938.75,-633.25,4
205.75,-417.5,-14.0,-206.75,947.25,1316.0,-965.75,42.25,4
293.0,-619.0,2.75,-180.75,1215.0,513.75,-1022.0,204.0,4
289.75,-350.25,86.25,-186.75,1457.25,141.5,-1050.25,127.75,4
242.75,-451.5,50.5,-56.5,1657.25,-25.0,-875.25,-1.5,4
161.5,-484.75,-6.0,-38.25,1896.0,252.25,-318.25,-451.25,4
146.0,-30.25,-7.5,-168.25,2304.0,764.75,214.0,-2132.75,4
132.5,338.75,13.0,-91.25,2357.25,1311.0,784.75,-2213.0,4
6.25,441.0,1471.0,-27.0,2327.0,1710.0,1080.5,-992.75,4
-54.5,389.0,969.0,-46.0,2116.75,1672.5,985.5,-252.75,4
-8.25,484.25,46.25,47.25,1867.75,2128.25,776.25,-320.0,4
71.75,669.5,19.0,172.75,2005.75,2803.5,699.0,-659.25,4
75.0,716.75,11.75,250.75,1508.0,2553.25,670.5,-1119.5,4
33.5,845.25,12.5,257.75,1346.5,1660.5,839.0,-674.5,4
32.75,911.25,-22.5,206.75,799.5,339.5,963.0,-279.25,4
-84.0,877.0,-31.25,237.25,487.25,192.25,993.75,377.5,4
-282.75,754.5,1080.0,350.0,272.5,-70.5,988.5,729.75,4
-428.75,799.0,193.75,279.0,73.25,-332.5,586.0,1000.75,4
-339.25,494.0,-499.0,188.5,-94.0,4.75,-533.0,1268.75,4
-297.25,497.0,-612.25,259.75,184.5,638.75,-1587.25,1382.5,4
-342.25,217.0,-449.75,230.5,152.25,1085.25,-1415.75,1631.75,4
-272.0,-423.5,-688.25,134.5,25.75,503.75,-1091.25,1716.75,4
-292.5,-1123.0,-858.5,-142.25,54.25,-404.25,-1001.25,1652.75,4
-295.25,-1125.0,-234.25,-359.75,-73.5,294.25,-1030.0,1665.0,4
-213.25,-1207.5,243.75,-181.5,-154.5,235.0,-985.25,1532.25,4
-54.0,-1220.75,41.0,23.25,-223.75,-282.75,-961.0,1538.5,4
-27.75,-1222.75,190.5,227.75,-216.25,-363.25,-1032.5,1530.25,4
-105.5,-1221.75,278.5,433.0,-247.0,-711.0,-726.5,1522.0,4
-108.0,-859.5,986.5,456.25,-259.0,-160.25,212.0,1578.5,4
-187.5,-634.25,861.25,386.5,-285.0,-399.75,1443.0,1635.75,4
-252.0,-520.25,91.5,325.75,-329.0,-306.75,1785.0,1470.0,4
-243.0,-466.25,33.75,267.5,-335.5,75.25,1698.75,1308.75,4
-158.75,-310.75,-527.0,258.75,-373.25,-58.25,1169.5,1194.25,4
-70.0,-371.0,-683.5,242.75,-396.5,383.5,835.0,1170.75,4
-24.25,-377.25,-303.25,111.25,-402.5,-66.0,820.5,1199.25,4
-91.75,-498.0,-246.5,-146.5,-361.75,-1038.75,1008.5,1188.25,4
-276.0,-353.75,-266.5,-394.5,-350.75,-1214.0,1256.0,1090.75,4
-459.5,64.75,-365.5,-336.25,-341.0,-572.25,1053.25,1011.0,4
-481.25,186.75,-640.5,-131.0,-212.75,-851.5,939.25,1118.0,4
-406.0,463.75,-625.5,-124.75,-87.5,-1318.75,1166.0,1144.0,4
-291.5,725.75,-805.25,-64.25,29.75,-1024.25,1244.0,1196.0,4
-77.75,817.25,-822.75,26.5,-192.75,-165.5,1409.0,238.75,4
77.75,796.0,-858.25,85.75,-122.75,352.0,1463.75,-488.0,4
162.0,897.75,-871.75,-6.5,-343.25,-172.75,1341.75,-752.0,4
241.25,961.0,-913.0,-123.0,-270.5,-592.25,1339.75,-744.5,4
185.5,577.0,-584.5,-8.0,-103.25,-1366.75,984.75,-649.25,4
27.5,325.75,622.5,53.25,48.75,-1457.25,544.0,-538.0,4
45.25,158.75,1008.0,34.75,123.25,-1365.25,486.0,-495.75,4
-306.5,-428.5,1046.0,70.75,492.75,-1982.0,180.25,-496.0,4
-589.25,-594.75,1057.5,-152.5,356.5,-1993.75,-276.25,-523.25,4
-597.5,-540.5,1003.5,-239.0,323.75,-1262.0,-779.0,-650.0,4
-585.25,-468.25,1013.5,-284.25,-661.75,-356.75,-1065.25,-870.0,4
-141.75,-228.75,406.5,-481.75,-1366.5,178.75,-972.0,-1019.75,4
65.25,35.0,-558.25,-330.25,-1321.75,-66.5,-297.25,-1174.0,4
478.75,315.75,-111.25,-157.25,-1421.0,-63.0,500.25,-1345.25,4
868.5,295.0,-264.5,4.0,-1372.5,-353.75,670.25,-1399.0,4
1057.5,242.75,240.5,32.5,-1497.5,-606.5,452.5,-1400.25,4
1106.0,280.75,335.0,25.5,-1452.75,-331.5,652.5,-1302.25,4
1054.5,274.75,558.5,36.25,-1461.75,-542.0,943.0,-1218.0,4
936.25,293.75,872.5,-14.25,-1266.25,-298.75,949.0,-1254.5,4
612.5,241.75,583.0,-30.0,-1141.75,-233.75,693.25,-1335.0,4
491.5,207.0,316.75,-83.25,-971.75,-454.0,686.75,-1244.0,4
363.75,201.75,-286.75,-25.5,-691.75,-156.25,1033.75,-1020.75,4
170.5,143.5,-473.75,-44.25,-547.75,668.75,1102.25,-1020.25,4
29.75,32.75,-913.0,-86.75,-457.0,855.5,814.75,-1042.5,4
-162.75,-83.75,-1028.25,-120.5,-375.0,265.25,503.75,-997.25,4
-391.25,-68.25,-955.0,-176.25,-274.5,680.0,-126.0,-1055.0,4
-435.75,193.75,-936.25,-149.5,-385.0,1334.5,-562.75,58.0,4
-357.25,349.25,-909.75,2.75,-578.25,629.25,-493.5,867.5,4
-302.75,364.5,-831.0,170.75,-573.25,-128.0,89.0,787.25,4
-202.0,489.75,231.75,56.5,-494.75,19.25,476.0,816.0,4
-62.5,383.5,1050.5,-184.75,-436.0,-116.25,413.0,806.75,4
69.75,113.5,1550.0,-407.0,-360.5,-176.75,68.75,232.0,4
127.5,-10.75,1584.0,-356.25,171.75,734.0,-593.75,-477.25,4
-144.5,-450.25,1175.0,-265.75,253.75,1795.5,-801.25,-291.25,4
682.25,209.5,488.5,-1175.0,-126.5,1488.25,-580.5,390.25,4
1031.5,433.75,572.0,-1187.25,719.0,1364.0,-278.25,815.25,4
186.25,10.5,694.25,-933.75,1862.25,880.0,-229.5,812.25,4
-67.25,276.25,636.5,-967.5,1576.75,-950.0,-389.5,611.0,4
-557.5,-25.0,648.0,-174.5,1687.0,-684.0,-857.25,44.5,4
-457.0,67.5,683.0,69.25,1552.25,-126.5,-910.25,-425.0,4
-203.75,207.75,710.0,519.5,2147.75,460.0,-594.0,-634.25,4
-211.25,19.0,274.75,542.5,2073.0,2094.0,-558.25,-502.5,4
190.25,128.5,-279.0,442.75,2095.5,2794.25,-966.5,198.5,4
48.0,-160.0,-777.25,555.25,2014.0,3249.0,-1066.25,578.75,4
-6.75,-384.25,-614.25,582.25,1912.5,2577.0,-676.75,736.25,4
-430.25,-874.0,-1529.5,970.5,1767.0,1912.0,-409.25,171.25,4
-672.0,-813.0,-2064.5,823.75,1511.5,1464.5,1363.5,-330.0,4
-651.0,-610.0,-1645.0,772.75,1460.25,83.0,1801.5,-193.5,4
-680.5,-535.25,-1551.5,757.5,1205.25,-1160.0,1076.75,-307.25,4
-690.5,-460.25,-1370.25,615.5,605.5,-2144.0,964.0,-14.5,4
-597.5,-510.75,555.0,527.75,-121.5,-2219.25,1481.25,367.5,4
-616.25,-259.75,410.25,463.0,-624.5,-1814.75,1987.0,873.0,4
-1002.75,-156.75,534.75,411.0,-1250.0,-1266.5,2198.75,1548.5,4
-953.75,-101.5,558.75,375.5,-1580.0,-1176.0,1865.25,2163.0,4
-947.5,-159.75,695.75,310.25,-1570.0,223.0,1714.0,2377.5,4
-879.25,-111.75,890.5,287.0,-1854.5,1232.75,1998.75,2250.75,4
-863.5,-75.5,955.5,156.5,-2025.5,1431.5,2078.0,2156.5,4
-904.0,51.0,543.5,121.0,-2158.0,1029.0,2042.0,1608.75,4
-816.0,104.25,-139.0,161.25,-2180.5,894.25,1823.25,-736.75,4
685.5,-129.0,-190.75,154.5,-2231.75,-124.25,1348.75,-2149.0,4
1049.0,-365.5,-412.25,186.5,-2142.75,-1291.0,1006.0,-2317.75,4
1028.25,-344.5,-1015.5,80.5,-2065.5,-1064.5,550.75,-1772.75,4
1073.5,-86.75,-1435.75,-111.0,-1822.5,-345.0,320.25,-1204.5,4
1148.5,-56.0,-1505.25,-376.75,-1597.75,-795.5,492.0,-1179.0,4
1126.75,-18.75,-1338.75,-456.75,-1584.0,-2493.25,330.25,-2098.5,4
1065.0,5.75,-1077.75,-369.25,-1513.5,-2632.25,-196.0,-1975.75,4
1098.75,-93.25,-960.75,-365.5,-1581.5,-2456.25,-718.25,-1817.75,4
800.75,-132.25,-492.75,-343.25,-1162.25,-1842.0,-869.75,-1570.75,4
367.75,-52.75,62.0,-363.5,-785.25,-1294.75,-826.75,-1094.25,4
148.0,-43.0,177.75,-388.25,-706.75,-316.75,-1517.5,-728.75,4
-25.75,-71.5,280.0,-336.25,-594.25,-203.75,-2899.75,-545.25,4
-142.0,-77.5,484.5,-263.5,-316.5,-75.75,-2902.75,-403.25,4
-203.0,-32.5,484.25,-204.75,425.25,-62.5,-2754.0,-410.75,4
-346.75,99.75,424.75,-191.25,634.25,-1418.0,-1903.75,-563.5,4
-500.25,173.0,252.75,-208.5,674.5,-2166.0,-1774.75,-725.75,4
-691.75,334.0,212.0,-178.5,771.75,-1124.25,-1900.75,-834.5,4
-759.25,410.5,434.25,-94.5,961.75,914.25,-2016.5,-739.5,4
-907.25,379.25,891.5,-32.5,631.25,1847.75,-1955.5,-589.0,4
-883.5,312.75,1108.75,25.5,24.75,1972.5,-1613.5,-442.25,4
-872.75,191.75,912.25,-6.5,-257.25,1581.75,-1462.75,-181.5,4
-1050.75,137.5,217.5,-62.5,-74.5,1406.5,-1377.5,-29.0,4
-1146.25,98.25,-643.25,-126.0,-5.0,1624.5,-1309.25,-107.5,4
-989.5,-42.25,-776.0,-277.75,-25.0,1002.75,-1198.0,-208.5,4
-888.5,-169.25,-665.0,-410.0,-29.25,125.0,-1179.25,-341.0,4
-313.25,-64.0,-284.5,-379.75,140.5,-228.25,-1577.75,-665.75,4
233.75,149.0,290.0,-171.75,422.0,562.5,-1840.25,-914.75,4
799.5,268.0,406.75,-102.0,920.25,1342.25,-1914.25,-1140.75,4
995.0,202.25,282.0,-131.25,1471.5,1147.5,-1880.75,-1322.25,4
920.75,95.5,114.5,-109.5,1295.5,1377.5,-1786.0,-1379.5,4
873.75,-85.5,115.5,-80.75,968.5,1302.25,-1707.5,-1344.5,4
870.5,-236.0,-39.0,-89.25,636.75,954.25,-1605.5,-1286.75,4
929.0,-318.25,-305.75,-69.0,510.0,1501.25,-1095.0,-1219.25,4
1006.5,-275.25,-406.0,-2.25,329.25,1458.5,-991.25,46.75,4
1116.25,-12.5,-381.5,56.75,-81.0,517.75,-531.25,818.5,4
1156.25,90.25,-607.5,57.75,-666.5,467.0,-150.5,936.5,4
1149.5,127.25,-983.75,-5.5,-1062.5,106.75,105.0,1156.75,4
867.0,58.25,-939.0,52.0,-1786.25,190.75,519.25,1405.5,4
451.25,11.0,-794.25,110.0,-2333.0,447.25,1459.75,1703.0,4
112.5,28.0,-476.5,170.0,-2515.75,456.75,2160.0,1957.25,4
-232.0,35.5,66.25,204.25,-2582.75,221.75,2056.0,1838.5,4
-310.75,117.25,465.5,183.75,-2637.75,-812.0,904.5,1571.75,4
-374.0,94.0,667.0,159.25,-2674.0,-1058.0,437.25,1536.5,4
-827.75,36.0,786.5,92.75,-2684.0,-1001.5,477.25,1582.25,4
-1196.75,59.5,713.25,127.0,-2682.25,-1227.25,501.25,1642.25,4
-1068.75,98.5,551.0,53.0,-2668.0,-1364.75,1298.75,1023.5,4
-646.25,50.5,213.75,-47.5,-2631.25,-1629.5,1671.5,-386.25,4
-2.0,76.75,-360.5,-80.5,-2578.0,-1726.5,2194.25,-561.5,4
417.0,133.0,-394.0,-54.75,-313.75,-2255.75,2286.75,-700.0,4
425.0,168.5,-172.5,21.25,-2.25,-1817.75,2139.75,-703.25,4
226.25,219.25,-87.0,164.0,425.5,-719.75,2059.75,-574.25,4
-117.75,254.75,-184.5,235.5,814.75,183.25,1968.25,-342.5,4
-283.0,268.25,-346.75,24.75,1168.25,991.25,1821.75,-93.75,4
-387.75,266.0,-211.75,-105.0,1434.5,1013.5,2159.75,-150.0,4
-216.0,57.75,521.0,-431.5,1319.5,-51.25,3064.5,-699.0,4
327.5,-261.0,1533.5,-678.5,1347.25,-612.5,3556.25,-1057.75,4
436.75,501.0,1777.25,-583.75,1553.25,-2178.25,3313.0,-1286.0,4
407.0,1044.25,1638.5,-431.0,1602.75,-2890.25,3215.0,-1546.75,4
449.5,799.5,1445.75,-345.75,1711.25,-2290.5,2983.0,-1564.5,4
366.5,696.75,971.25,-201.0,1956.75,-67.0,2406.5,-1080.0,4
191.5,512.75,610.0,-167.5,2106.25,997.5,-177.25,-740.5,4
20.25,340.75,186.5,-26.25,1911.0,1527.25,-935.75,-638.75,4
-156.0,205.5,128.25,-49.25,1524.0,1914.75,-1477.75,-428.0,4
124.25,-177.0,-79.75,17.0,1814.0,1644.5,-1579.0,975.0,4
184.0,-94.75,-605.5,494.5,1549.25,1240.5,-1731.0,2588.0,4
-821.75,-137.75,-1010.25,1070.25,1166.75,2017.75,-1657.5,2995.5,4
-1039.0,-267.5,-1419.75,1026.5,652.25,1771.25,-1190.5,2922.25,4
-735.5,-58.75,-1627.25,854.0,-329.25,234.0,-345.5,2819.5,4
-751.0,-27.75,-1774.75,893.0,-539.25,-98.75,31.75,1907.5,4
-615.75,-23.25,-1519.0,702.75,-456.25,-739.5,-105.25,573.75,4
-529.5,123.25,-1110.5,670.0,-424.0,-970.25,-427.5,563.25,4
-523.0,61.75,-611.0,718.25,-337.0,-182.5,-814.25,426.75,4
-355.0,109.5,-198.5,870.25,-299.0,560.0,-597.5,460.25,4
-425.5,49.75,117.25,910.75,-248.5,883.75,-357.75,359.5,4
-449.25,29.25,329.5,872.0,-233.0,908.0,-451.25,279.75,4
-650.25,-2.0,443.75,778.25,-206.25,358.75,-744.75,330.25,4
-681.75,-42.75,562.75,604.0,-262.25,-622.0,-909.75,754.25,4
-775.5,21.5,593.25,299.75,-296.75,-317.25,-947.25,963.25,4
-930.0,-19.25,651.0,20.5,-328.0,-427.75,-1297.0,795.5,4
-1113.5,-24.5,665.75,63.25,-391.5,-829.0,-1287.5,-1278.25,4
-981.5,-80.75,664.25,-121.0,-387.75,-1076.0,-1133.25,-1310.0,4
-531.25,-108.0,303.75,-158.75,-540.75,-1049.75,-1223.0,-1221.5,4
-498.0,-146.75,-225.75,-174.0,-730.25,-1036.25,-1183.0,-1276.75,4
-235.5,-215.0,-424.0,-121.5,-1165.5,231.0,-1344.5,-1281.5,4
-127.0,-307.0,-350.5,80.25,-2168.0,1286.0,110.5,-1202.0,4
-118.25,-281.0,-239.25,149.5,-2369.0,-341.75,49.0,-1322.25,4
93.0,-167.25,-196.0,95.0,-2382.25,-523.5,-75.0,-1229.0,4
276.5,-125.25,-197.25,-116.0,-2426.0,-952.75,278.25,-369.0,4
520.0,-106.75,-159.0,-229.0,-2413.75,-1778.5,602.75,-322.75,4
883.5,-119.75,-214.5,-330.75,-2385.0,-1980.5,711.5,-200.75,4
1029.5,-149.75,-535.0,-590.5,-914.5,-2221.75,1036.5,628.75,4
992.0,-261.0,-569.5,-940.0,-216.0,-2151.25,1342.75,216.75,4
573.0,-369.75,-341.25,-870.5,-177.5,-2280.5,1427.5,-1116.5,4
-11.75,-367.25,-189.5,-700.0,-81.25,-1745.25,1446.75,-1207.0,4
-414.5,-133.75,93.25,-602.25,-37.5,244.5,1429.0,-1343.75,4
-745.75,54.5,320.25,-467.5,10.0,473.75,1223.25,-1501.75,4
-648.25,21.75,162.25,-513.0,60.75,496.0,1281.25,-1448.5,4
41.75,28.5,15.0,-478.5,118.75,306.25,1291.5,-1484.25,4
761.75,-115.75,141.5,-464.0,165.75,580.25,1186.0,-1563.0,4
1165.5,-133.75,411.0,-346.75,-251.5,527.0,1045.0,-1481.0,4
1210.0,-251.5,547.75,-211.25,-1281.25,739.5,851.5,572.0,4
1243.75,-464.75,408.75,-173.0,-1738.75,754.25,637.75,598.25,4
1227.0,-404.75,144.0,-129.0,-1683.5,15.0,493.5,539.0,4
1027.75,-415.75,-364.25,-115.25,-1634.25,-979.75,619.75,615.5,4
642.5,-336.75,-596.5,-142.75,-1595.75,-466.25,721.25,756.0,4
310.75,-135.0,-521.75,-236.25,-1577.75,110.75,51.75,671.75,4
144.5,70.0,-368.5,-283.5,-1448.75,192.0,-910.75,607.0,4
204.75,59.25,-110.25,-322.25,-1216.5,586.0,-1716.25,694.5,4
282.75,102.75,245.5,-209.5,-456.75,497.0,-1676.75,899.5,4
344.0,76.0,297.75,201.25,679.5,689.25,-1911.25,803.25,4
414.25,-458.25,-433.25,692.5,1011.5,1048.0,-2005.0,612.25,4
-44.75,-452.0,-489.25,426.25,964.75,816.5,-1723.75,882.5,4
-220.0,-52.5,-151.25,167.5,798.75,833.75,-1819.5,829.75,4
-491.5,-122.0,19.0,149.0,1106.0,685.0,-1388.25,987.0,4
-740.5,56.25,507.25,-235.75,1810.0,527.25,-1075.0,1182.0,4
-676.75,23.0,441.0,-304.75,2556.0,525.0,-1233.0,1108.5,4
-333.75,38.25,381.75,-461.5,2382.25,64.0,-1275.0,1222.25,4
301.5,143.25,280.0,-421.5,2438.75,-239.25,-1377.25,1179.25,4
602.25,52.25,194.25,-385.75,2392.5,-357.75,-1126.25,1279.75,4
779.5,-41.25,116.0,-300.25,2314.0,-432.0,-1183.25,1274.5,4
447.75,-82.5,148.5,-204.5,2312.5,-485.5,-1502.75,1343.75,4
193.75,50.75,364.75,-213.75,2104.75,-184.25,-1906.75,1459.5,4
-0.5,-25.25,333.0,-140.5,1910.75,520.75,-2126.75,1695.0,4
-33.25,1.5,348.0,-206.5,1797.0,1016.0,-1741.75,2002.75,4
-156.5,80.75,255.75,-155.75,1906.75,1256.25,-1017.25,2001.75,4
-479.5,-79.5,192.0,-195.75,1588.25,1193.0,-618.0,2078.5,4
-527.75,-276.75,40.0,-160.5,75.75,1442.5,-474.0,1072.75,4
-435.25,-256.25,-104.5,-126.75,275.5,1557.0,-278.25,78.5,4
5.5,-62.0,-82.25,-34.0,335.75,1872.5,-32.5,-111.0,4
360.0,146.0,-109.0,38.0,260.5,2486.0,215.75,-231.5,4
696.0,44.5,-185.5,-4.75,256.75,2678.5,141.25,-456.75,4
783.75,-48.75,-160.75,-101.25,254.0,2094.75,517.5,-587.25,4
705.25,-26.25,-130.25,-225.5,1311.5,1737.0,756.25,-747.75,4
414.25,-47.5,-78.75,3.75,2377.75,1397.75,833.0,-982.0,4
-63.0,5.5,-46.25,245.5,2371.75,708.5,1529.5,-1121.25,4
-289.25,-8.75,-27.25,394.5,2231.0,798.0,1969.0,-1230.5,4
-378.25,6.0,60.75,379.0,2091.75,1317.0,1758.0,-1291.5,4
-447.25,25.0,6.5,144.0,2069.0,857.5,1568.75,-1299.0,4
-558.5,83.0,-99.75,-9.5,-176.75,1281.25,1703.0,-1160.25,4
-464.0,185.75,-330.0,-187.5,-758.25,1570.5,1957.0,-1114.25,4
-183.5,313.25,-346.0,-480.5,-1369.75,127.75,2344.75,-1237.75,4
148.0,527.75,-49.75,-733.75,-1549.0,-1063.0,2656.0,-1089.5,4
143.25,766.0,539.5,-706.0,-1679.25,-677.75,2757.5,-1011.0,4
-259.0,661.5,997.25,-682.0,-1764.5,-486.0,2481.75,-1061.75,4
-568.75,540.0,738.0,-687.0,-1496.5,-503.25,2135.25,-1356.75,4
-311.25,394.0,-132.25,-311.25,-792.5,-421.75,1422.0,-2034.25,4
-605.5,-546.25,-1415.75,678.75,-1079.75,244.25,413.75,-2086.75,4
-1050.75,-965.25,-1696.0,940.5,-1678.0,-23.5,394.5,-1570.75,4
-83.5,-436.5,-1173.5,199.75,-33.5,-808.75,631.75,-1073.0,4
588.5,-313.0,-964.0,331.0,343.75,-303.0,277.25,-688.0,4
-248.25,-518.75,-81.5,274.75,52.5,-922.5,811.75,288.0,4
-48.25,477.0,941.75,-486.75,-707.0,-1705.25,655.25,753.75,4
-752.75,-348.5,635.0,781.75,723.75,-804.5,-498.75,594.25,4
-751.0,-710.75,265.5,675.5,1376.75,3.25,-462.25,1020.75,4
-127.25,-489.25,473.5,343.5,1602.25,266.5,-45.5,1360.5,4
39.75,-642.0,116.75,709.75,2477.75,476.5,-308.75,1266.0,4
155.75,-572.0,272.0,649.75,1554.0,-243.5,-71.5,1554.75,4
59.25,-389.75,327.25,776.75,1996.5,-645.0,-472.25,1520.75,4
-188.0,-443.0,287.5,624.5,1485.0,-1027.5,-160.75,1764.75,4
-234.5,-158.5,440.5,441.25,1455.5,-1165.25,-73.5,1632.5,4
-358.5,-280.5,289.75,489.5,1356.25,-1277.5,353.25,1494.5,4
-267.0,32.25,380.5,276.25,1297.0,-607.25,597.25,1280.5,4
-490.75,-61.0,153.5,374.5,1462.25,175.75,486.5,1093.5,4
-600.75,45.5,91.5,308.25,-1144.25,-557.25,-98.0,1084.5,4
-666.5,31.5,-74.75,368.25,-2547.5,-1580.25,-699.0,904.0,4
-886.75,91.5,-337.5,243.5,-2558.25,-1350.25,-568.25,881.75,4
-1245.5,34.5,-666.5,231.75,-2428.5,-641.75,-447.75,624.0,4
-1286.0,110.25,-725.0,141.5,-2457.75,155.25,31.5,470.0,4
-1159.25,265.25,-457.75,36.25,-2366.5,262.0,882.75,331.25,4
-1059.75,292.25,-226.75,-176.75,-1993.0,556.0,1060.5,195.75,4
-810.75,290.5,161.75,-240.5,-1754.75,401.5,366.0,51.75,4
-751.25,160.75,176.0,-285.25,-2055.25,-208.75,-131.0,110.0,4
-442.75,259.0,239.75,-486.0,-2115.5,65.25,-460.5,145.75,4
792.0,80.0,311.75,-447.0,-1693.5,378.25,-336.5,-182.0,4
1647.25,40.5,183.5,-320.25,-1661.0,709.75,-230.5,-57.75,4
1137.75,114.0,-193.25,323.75,-2079.5,1170.0,-646.25,490.25,4
176.0,589.25,-434.0,489.25,-2411.0,1362.25,-689.0,477.25,4
519.25,958.5,-489.25,85.75,-2150.25,1367.25,-728.5,33.25,4
1785.5,698.25,-710.5,-456.0,-1288.5,1304.5,-555.5,-527.25,4
1650.5,417.0,-1059.25,-949.5,-821.25,1183.25,-325.0,-996.0,4
1344.75,653.75,-836.0,-1045.0,-454.5,1036.75,319.0,-1170.75,4
1312.5,-20.75,-16.75,-1054.0,192.5,1567.0,690.75,-1624.75,4
1112.25,-544.5,831.75,-1004.75,631.25,1401.75,293.5,-1428.25,4
1117.75,363.75,996.25,-813.5,-115.0,869.75,-191.25,-1196.0,4
1574.75,839.5,1090.0,-615.25,-96.0,752.25,-267.75,-1330.25,4
1260.0,673.0,882.0,-464.75,-563.5,417.5,-275.25,-928.75,4
692.5,552.5,121.0,-534.75,-273.75,570.0,-70.5,-992.5,4
146.0,-4.75,-461.75,-530.0,182.25,614.5,-134.75,-1031.25,4
-473.25,290.25,-450.0,-650.5,-973.0,123.75,-716.0,-760.5,4
-696.0,450.5,94.75,-718.5,-639.5,10.0,-651.75,-950.25,4
-1220.5,288.5,692.0,-648.25,-237.25,-172.25,-398.5,-1364.25,4
-1079.0,381.5,1142.75,-326.0,-730.5,-419.25,-125.25,-1694.75,4
-908.5,-358.0,900.75,885.5,318.75,750.5,351.0,-2424.75,4
-1479.75,-1050.25,182.25,1225.0,256.75,1441.75,51.0,-2310.5,4
-1263.75,-943.25,153.5,1120.0,452.5,1484.0,82.25,-2001.25,4
-905.0,-752.0,161.5,1089.5,417.75,1519.25,49.25,-1223.25,4
-975.25,-672.0,-225.75,1020.5,527.5,1545.5,-5.25,-551.5,4
-618.5,-553.75,-163.25,605.0,733.25,1448.25,93.75,-77.5,4
-748.75,-553.0,-416.0,511.0,535.0,1440.75,144.0,297.25,4
-735.25,-404.0,-396.25,232.25,616.0,1403.25,352.0,509.75,4
-677.75,-250.75,-369.0,299.75,604.25,1422.0,371.75,463.5,4
-488.5,-127.75,-502.75,123.25,172.25,1051.0,488.75,577.75,4
-234.25,30.0,-625.0,87.25,-141.5,405.75,897.0,843.5,4
-366.5,67.25,-591.25,-163.25,-125.75,-235.75,1167.5,917.75,4
-505.75,78.25,-266.0,-371.25,-202.25,-932.25,1259.0,919.25,4
-580.75,48.0,-117.25,-354.5,-244.25,-1007.25,1424.5,994.25,4
-163.0,56.5,4.25,-450.75,-90.0,-1125.25,1738.5,1149.25,4
9.75,41.25,-106.25,-531.5,-160.0,-1114.0,1953.25,1145.0,4
213.0,41.5,-161.0,-582.0,-55.0,-1053.75,1651.75,1216.25,4
271.75,151.75,-37.25,-666.5,-273.5,-1170.25,546.0,1479.25,4
206.25,576.75,339.75,-1050.75,-426.5,-1649.25,-477.0,1947.5,4
-212.75,799.75,296.0,-1058.5,-285.75,-1562.25,-748.75,1440.5,4
-513.5,741.25,282.75,-921.25,41.25,-1465.0,-800.5,1234.75,4
-561.25,711.0,591.25,-758.25,217.25,-1613.0,-640.75,1710.0,4
-173.25,746.5,571.5,-562.25,597.0,-1460.25,345.25,1518.75,4
711.5,664.25,450.75,-392.0,941.75,-1343.0,960.75,1558.0,4
1327.75,649.0,378.5,-333.25,1026.0,-1083.75,1323.75,1220.75,4
1268.25,486.5,173.0,-244.0,1291.0,-808.0,1290.75,1087.5,4
1235.25,362.25,136.5,-183.5,1536.5,-842.25,1043.25,1025.75,4
1170.5,112.75,-48.5,-120.0,1879.75,-783.25,988.25,767.5,4
1120.75,-13.25,-34.25,-81.5,2065.0,-607.75,531.75,880.5,4
1150.5,-50.25,-63.0,-43.75,2232.0,-206.0,273.75,862.0,4
965.0,-100.75,-84.25,-14.0,2350.25,-286.0,250.5,803.75,4
490.25,-120.75,-97.75,-15.25,2442.75,-916.5,274.75,656.25,4
198.75,-165.75,-108.0,0.0,2416.5,-837.75,148.75,658.0,4
-6.0,-107.0,-158.25,16.75,2557.5,-558.25,133.5,598.25,4
-384.75,-123.0,-211.25,79.5,2570.25,-1151.5,-171.0,536.5,4
-751.0,-172.0,-236.0,120.25,2492.75,-1879.75,-429.75,555.5,4
-826.25,-220.0,-332.5,123.5,2432.25,-1891.5,-609.75,403.25,4
-718.25,-260.0,-314.25,99.75,2096.5,-1873.75,-951.75,340.5,4
-332.75,-347.75,-556.0,161.5,1418.25,-2501.5,-1065.75,-13.0,4
-320.5,-473.0,-798.5,751.25,1123.5,-1325.75,-783.25,-606.0,4
-1458.0,-762.0,-700.25,1066.5,1281.5,116.5,-570.75,-525.0,4
-1606.5,-761.0,-565.0,1041.25,554.0,170.25,-784.25,-374.75,4
-1472.75,-665.75,-364.75,940.75,-300.75,408.25,-934.5,-711.5,4
-1717.5,-750.0,-164.5,939.0,-711.25,398.0,-1114.0,-776.0,4
-1436.75,-644.75,-71.25,741.0,-637.5,371.0,-1369.0,-921.5,4
-1197.0,-521.75,-69.5,756.0,-138.75,524.75,-1544.25,-875.5,4
-967.0,-376.25,-95.25,505.75,160.75,557.75,-1808.5,-743.0,4
-502.0,-341.0,-42.0,458.5,343.0,401.25,-1819.5,-644.25,4
-344.75,-367.0,-69.5,380.25,328.5,43.5,-1924.5,-386.25,4
-58.0,-242.25,-184.0,219.0,288.25,-18.0,-1814.0,-31.5,4
-111.25,-132.0,-241.5,45.5,431.0,-167.5,-1508.5,335.5,4
-161.5,-147.0,-187.5,78.75,507.25,-211.75,-1029.75,647.0,4
-541.0,-192.75,-73.25,127.75,596.25,-857.5,-793.75,962.0,4
-510.5,-130.75,-12.75,90.5,643.25,-784.75,-916.5,1136.75,4
-261.5,-63.5,156.0,106.25,634.75,-670.25,-1066.5,1196.0,4
171.25,279.5,307.0,42.75,511.75,-172.75,-1113.5,967.5,4
350.5,307.0,426.5,186.25,236.75,450.0,-1015.75,623.0,4
376.5,267.75,393.5,85.75,-154.0,216.5,-698.5,133.75,4
509.25,277.5,245.0,156.0,-228.75,-9.5,-543.5,-369.5,4
245.5,197.25,220.5,226.5,-217.25,-396.0,-502.0,-431.25,4
135.25,155.75,103.25,111.0,-903.5,-806.5,-676.75,-532.75,4
11.5,81.5,1.0,51.5,-1414.25,-869.75,-532.75,-558.25,4
-2.25,231.5,-13.75,-33.25,-1759.0,-1213.0,52.25,-277.5,4
52.75,274.5,16.5,-130.0,-2094.5,-1472.0,374.5,-203.0,4
193.5,174.5,101.0,-250.5,-1883.25,-1021.75,253.75,-361.25,4
207.0,176.75,188.75,-283.0,-1862.25,-1102.0,35.5,-906.25,4
202.5,245.75,73.75,-584.0,-2031.25,-1367.0,59.0,-1198.25,4
360.25,276.0,-135.5,-772.0,-1883.75,-1174.5,182.5,-1272.25,4
403.5,302.25,-113.75,-725.5,-1644.75,-1250.75,234.0,-1369.0,4
404.75,271.25,62.25,-592.25,-1347.0,-1999.75,343.25,-1348.25,4
369.75,397.25,141.25,-643.75,-1898.5,-1828.0,590.25,-1284.5,4
604.75,614.25,143.25,-715.5,-1917.0,-962.25,644.25,-1336.0,4
645.5,531.0,127.5,-566.25,-1578.25,-938.0,796.75,-1069.75,4
502.75,363.5,-25.75,-342.75,-1187.0,-664.5,847.5,-606.0,4
287.75,220.5,-15.5,-233.5,-1539.25,-873.5,921.75,-250.0,4
-41.75,167.75,0.5,-233.5,-1514.25,-940.25,951.75,126.0,4
-345.25,-399.0,-98.75,95.25,-841.25,-699.25,898.75,128.75,4
183.75,-293.25,-14.5,-238.5,-1378.25,-1001.5,907.0,380.25,4
821.5,-18.25,-79.0,-302.0,-824.25,-562.5,1022.25,462.0,4
1031.5,-4.0,-108.0,-305.5,-734.75,-500.75,1057.0,208.0,4
1144.75,171.75,-55.5,-254.5,-44.5,-314.0,1062.0,-48.5,4
836.0,169.25,38.5,-231.0,427.75,-58.25,1114.5,-430.0,4
579.5,266.5,71.25,-228.75,661.5,202.75,1098.0,-676.75,4
-43.25,64.75,88.0,-231.0,661.5,303.25,1063.5,-719.25,4
-62.75,512.25,90.25,-569.0,503.75,462.0,970.0,-717.5,4
-63.75,44.0,-65.75,118.25,1655.0,1471.25,617.5,-677.0,4
-171.75,-119.0,52.0,-71.0,1631.25,1632.0,488.25,-395.25,4
-149.75,37.5,3.75,140.0,2289.5,1456.25,729.25,-201.75,4
-695.0,-217.25,-18.75,258.5,1982.75,1274.0,1006.5,-132.75,4
-594.25,174.25,22.0,-1.0,1804.25,1825.75,1319.75,-449.5,4
-848.5,-204.75,-21.25,418.75,2293.0,1989.0,1469.0,-1134.25,4
-923.0,-219.75,64.75,188.0,1560.0,1121.0,1353.75,-1286.75,4
-667.75,-309.75,1.75,332.25,2071.5,1141.5,1259.25,-1123.25,4
-576.25,-297.75,34.75,283.0,1946.25,1219.0,1086.5,-1059.0,4
-555.5,-230.25,69.5,483.0,2243.25,1249.25,590.75,-889.25,4
-640.0,-255.25,12.25,554.0,1858.25,1048.25,55.25,-747.75,4
-458.75,-93.5,-44.25,475.5,1825.75,987.75,-427.25,-456.25,4
-593.75,-302.5,34.25,533.75,1648.75,790.75,-670.75,-243.5,4
-440.75,-170.25,41.0,290.25,1145.75,685.0,-499.5,-238.0,4
-303.25,-230.25,-104.25,315.5,1325.5,806.75,-170.5,-43.75,4
-300.0,-198.25,92.25,146.0,933.5,534.5,-78.75,-46.75,4
-112.25,-206.75,301.75,79.5,1241.75,475.0,-268.5,-333.5,4
-17.0,-311.0,315.25,61.5,1541.25,353.25,-505.0,-718.0,4
104.75,-196.5,379.0,13.25,1824.5,231.25,-568.5,-1052.25,4
170.5,-121.75,354.75,-3.5,2033.0,53.75,-577.0,-1077.25,4
310.25,-5.75,303.0,33.25,2168.5,-24.75,-723.25,-979.5,4
308.25,2.5,296.0,120.25,2289.75,-4.0,-905.0,-945.0,4
114.25,-27.75,117.25,51.5,2149.75,14.25,-913.5,-817.25,4
82.75,-20.75,-190.5,-31.5,2210.75,63.75,-900.0,-644.5,4
91.5,-21.0,-346.75,-96.0,2231.75,78.75,-903.75,-698.5,4
45.0,-65.25,-331.25,-92.5,2150.5,60.75,-856.25,-817.0,4
19.5,-14.25,-218.75,-79.25,1838.75,3.5,-790.25,-975.25,4
-115.5,156.25,-267.75,-106.0,1440.0,-38.25,-735.25,-881.5,4
-22.25,332.5,-320.0,-14.0,1193.75,-0.75,-683.5,-169.25,4
31.5,354.25,-224.5,187.0,1034.25,-51.0,-660.75,985.0,4
-39.5,373.0,-140.25,201.0,674.25,65.0,-619.75,1148.5,4
77.5,422.0,-70.5,314.25,380.25,711.5,-385.25,1001.25,4
-25.5,341.5,-46.25,522.0,54.0,1487.5,-159.25,928.5,4
-78.0,296.5,73.75,369.5,-203.25,1243.0,-18.0,868.0,4
59.0,315.25,142.75,-4.75,-87.25,309.25,103.25,554.5,4
295.25,361.5,144.5,-447.5,131.0,412.0,321.5,280.5,4
335.0,347.75,139.25,-715.25,490.0,847.25,539.0,418.5,4
266.0,237.5,137.5,-833.75,625.75,966.5,657.0,785.5,4
346.75,247.25,88.5,-998.0,312.0,844.25,695.0,882.75,4
503.25,295.75,-19.0,-1068.5,59.0,522.75,737.0,1029.0,4
633.5,223.75,21.25,-852.25,-71.25,362.0,746.25,1092.0,4
702.0,256.0,12.0,-693.25,-314.25,361.25,762.25,920.25,4
895.75,284.5,-106.0,-574.75,-206.25,371.0,767.5,806.75,4
838.25,135.75,-240.5,-314.25,7.75,372.5,736.75,726.5,4
680.25,99.0,-281.0,-87.5,121.5,398.75,687.75,744.25,4
324.5,-5.25,-241.25,178.0,85.75,191.0,620.0,966.75,4
230.5,-26.75,-200.25,136.75,-622.25,-116.0,540.25,980.25,4
217.5,-145.75,-167.25,217.0,-520.25,-69.5,453.25,668.0,4
-9.5,-367.75,-154.25,80.75,-1339.5,-168.25,350.0,182.5,4
345.0,-24.5,13.5,-257.0,-2270.5,-475.0,234.0,536.5,4
272.25,27.0,181.0,-138.0,-1785.0,-455.5,119.0,765.0,4
-174.0,-387.25,200.25,19.25,-1376.0,-77.75,74.25,199.25,4
-31.5,-158.75,488.0,-461.5,-2281.5,-336.0,134.5,233.0,4
321.25,181.75,744.0,-590.5,-2152.5,-336.25,237.5,998.25,4
171.5,145.75,443.0,-428.75,-1544.0,-179.5,280.0,1167.25,4
57.25,220.5,84.0,-622.75,-1487.0,-524.75,313.75,482.75,4
212.5,310.75,27.25,-408.25,-571.75,-421.25,339.25,326.75,4
52.0,-39.25,-399.25,-53.75,-391.0,-99.0,381.0,637.0,4
-370.5,-527.0,-905.5,529.0,-331.25,709.75,424.5,574.0,4
-956.0,-1018.0,-1370.75,899.5,-387.25,848.75,453.0,470.0,4
-1003.75,-749.25,-875.75,844.5,-596.75,85.5,464.0,4.25,4
-658.25,-245.0,-417.25,579.75,-1239.25,-655.75,444.75,-379.25,4
72.5,623.5,-216.5,-174.25,-1840.0,-1101.0,437.5,-293.25,4
391.25,890.25,24.0,-241.5,-989.75,-368.0,407.25,-310.75,4
-574.5,-103.0,-92.5,282.25,-295.5,96.75,404.75,-385.75,4
-927.25,-310.0,168.0,341.25,-731.5,-186.5,402.5,-599.0,4
-969.25,-501.0,449.25,660.0,-1173.75,-570.5,320.25,-675.5,4
-789.25,-487.5,530.75,395.0,-1572.25,-935.75,208.0,-454.5,4
-487.75,-351.5,560.0,-91.25,-2494.25,-969.25,105.25,-274.0,4
476.0,388.5,788.75,-915.75,-2599.25,-1615.5,100.25,-27.25,4
886.75,583.75,1023.0,-829.25,-2058.25,-1634.5,53.25,250.0,4
833.5,509.75,689.5,-534.5,-1688.75,-1342.75,-168.0,-94.5,4
889.75,541.5,196.25,-558.25,-895.5,-1351.5,-349.5,-255.75,4
209.25,-29.5,-259.5,83.75,467.0,-667.5,-375.0,-119.5,4
-705.5,-828.75,-662.75,942.0,1177.5,105.25,-191.25,-910.75,4
-829.5,-831.75,-718.0,1267.0,1298.0,151.5,115.75,-968.5,4
-608.0,-613.5,-475.5,968.0,1174.5,188.0,445.25,-648.0,4
-147.0,-328.5,-350.0,587.75,500.25,448.5,787.25,241.5,4
132.25,-173.25,-365.5,634.75,912.0,422.0,1040.0,1184.0,4
-332.75,-658.0,-507.25,812.0,1630.25,492.5,1121.0,1192.25,4
-539.25,-826.75,-487.75,686.0,1149.5,108.5,1134.25,929.75,4
478.5,11.0,34.0,-189.0,567.0,-812.5,1274.75,727.25,4
1051.25,581.75,408.0,-636.5,660.5,-1153.25,1175.25,709.5,4
974.0,604.25,547.0,-624.25,688.25,-945.25,754.25,728.75,4
411.5,435.5,785.75,-558.0,504.25,-854.75,414.0,600.5,4
-87.25,466.75,935.5,-397.25,693.5,-990.25,207.25,411.5,4
-821.75,138.25,970.25,-200.5,628.25,-828.5,-69.0,-193.0,4
-1019.0,353.5,877.25,7.0,423.0,-53.25,-225.5,-950.5,4
-1222.5,429.5,718.5,357.0,500.25,735.25,-193.25,-1231.0,4
-1194.5,599.25,620.25,649.75,394.25,698.75,-113.75,-875.75,4
-1063.25,615.5,617.5,981.5,506.25,263.0,-65.25,-276.5,4
-922.75,564.0,684.75,888.5,309.75,-111.25,-495.25,-29.25,4
-465.5,684.5,604.5,805.5,330.75,-462.25,-1186.0,36.75,4
-430.75,406.0,500.0,471.5,179.5,-452.25,-1414.25,223.75,4
-377.5,107.25,308.5,-243.0,171.0,-565.5,-827.0,295.75,4
-422.75,-244.5,72.0,-956.25,78.75,-596.0,-445.5,-52.5,4
-415.0,-473.0,-403.5,-902.0,-27.25,-98.5,-573.25,21.75,4
-389.25,-908.75,-1338.5,-628.75,35.25,532.25,-1149.25,32.75,4
-598.25,-1151.5,-1762.25,-267.75,-308.75,568.5,-1994.0,-571.0,4
-664.5,-1161.25,-1930.25,158.0,-747.75,52.75,-2096.5,-793.75,4
-461.0,-1104.5,-1739.75,-30.5,-1122.5,-195.5,-1870.75,-167.75,4
-413.75,-1101.0,-1702.5,-226.0,-1290.5,-416.75,-1872.5,126.25,4
-204.0,-1077.0,-1697.0,-395.0,-1589.25,-805.75,-2208.75,634.75,4
-71.75,-973.75,-1513.75,-455.5,-1882.75,-1054.0,-2460.0,507.25,4
34.25,-717.25,-1238.0,-507.5,-2091.75,-455.0,-2216.25,147.25,4
297.0,-517.5,-207.0,-576.0,-2190.75,113.5,-1832.5,351.75,4
367.0,-353.75,674.5,-468.5,-2322.0,-690.75,-1123.0,552.0,4
467.5,-214.5,816.25,-255.0,-2283.0,-1186.0,-416.75,663.25,4
340.5,-34.25,891.25,37.25,-2168.5,-1648.5,-114.5,-25.75,4
182.0,195.25,914.5,180.5,-2078.75,-1403.5,-319.25,-362.75,4
186.75,321.0,951.0,337.25,-2065.75,-1098.75,-373.25,-435.75,4
268.25,306.75,933.25,358.5,-2075.0,-1078.75,304.75,-444.75,4
322.0,269.25,1016.75,483.5,-2009.5,-479.25,805.25,-608.75,4
458.0,328.25,1026.5,609.25,-1997.25,-358.0,835.25,-419.25,4
473.75,362.0,1131.0,712.75,-1910.75,253.75,319.0,-252.75,4
436.25,231.0,892.5,805.0,-1559.25,500.5,-65.0,-452.5,4
421.5,120.25,281.25,755.5,-1192.5,-218.0,-3.75,-759.25,4
438.0,356.0,-446.0,727.5,-815.25,-1350.5,210.75,-1020.0,4
493.0,442.5,-717.25,634.25,-425.5,-1888.0,417.75,-901.0,4
362.25,425.25,-903.25,419.5,-144.0,-1347.0,167.0,-591.25,4
308.0,499.25,-1102.0,114.25,-79.25,8.5,568.5,-232.0,4
186.25,478.25,-1233.0,54.0,-156.0,1257.75,892.5,-439.5,4
58.5,483.5,-1394.75,226.5,-115.25,1509.0,853.75,-908.0,4
86.25,429.0,-1377.75,280.25,-166.0,1040.25,512.25,-783.5,4
244.25,443.5,-1225.25,79.5,-197.25,737.75,63.25,-667.75,4
431.5,371.25,-1073.75,-151.0,-130.0,1096.75,380.5,-243.5,4
483.0,261.5,-882.25,-339.5,-189.25,411.75,566.0,50.25,4
188.5,183.75,-622.0,-581.5,-132.5,-1544.5,580.25,-55.25,4
-34.5,257.25,-377.75,-1110.5,-189.5,-2302.0,789.5,-94.75,4
494.25,684.5,70.25,-1608.0,-442.75,-1775.25,747.25,-410.75,4
701.75,628.0,-29.5,-1660.25,-845.75,-343.0,829.0,-860.5,4
698.75,480.0,-184.75,-1472.25,-1246.0,815.75,1475.0,-879.0,4
668.5,505.0,-233.25,-1240.75,-1658.0,805.25,1322.5,-822.75,4
578.75,555.5,-718.75,-867.0,-1887.0,98.75,929.0,-819.75,4
467.75,534.25,-701.25,-539.0,-2051.0,15.25,1055.5,-428.75,4
239.5,451.0,-553.5,-265.75,-1716.5,-200.75,608.0,49.0,4
166.75,265.0,-748.75,-128.25,-1160.5,-85.25,257.5,310.75,4
142.0,-50.75,-1089.5,370.25,-913.5,156.25,-448.5,454.5,4
-849.0,-740.25,-1141.75,1027.75,-1043.5,-148.25,47.25,808.25,4
-1075.25,-676.25,-528.25,1014.25,-1521.75,-869.25,455.25,990.75,4
-797.25,-520.75,111.5,806.25,-2420.5,-1251.0,270.75,909.25,4
-755.0,-487.5,661.25,753.0,-2457.75,-654.0,381.0,1009.75,4
-508.0,-413.75,773.5,596.0,-2244.0,-478.25,702.75,956.5,4
-317.75,-489.75,401.5,638.25,-2173.5,-707.75,405.5,1110.5,4
-378.25,-564.0,287.25,470.25,-1985.5,-1105.0,580.5,1042.25,4
-518.75,-673.5,513.5,442.25,-1980.5,-1018.5,526.25,906.5,4
-849.5,-1057.5,356.5,601.75,-1998.75,-526.5,485.75,938.5,4
-705.0,-1079.0,272.75,774.5,-1524.75,245.5,390.0,560.0,4
-584.75,-890.25,582.5,813.75,-652.5,678.25,404.75,84.0,4
-216.5,-733.0,473.5,664.75,111.75,-131.75,248.0,-77.0,4
-184.75,-605.75,323.0,427.5,476.0,-317.75,235.5,98.5,4
-135.25,-418.0,361.25,108.5,719.0,-19.75,248.25,539.5,4
-104.0,-233.25,240.0,-94.75,989.5,256.0,-609.5,743.25,4
-159.5,-58.75,100.0,-317.0,1594.75,936.5,-1131.5,433.75,4
-150.5,-62.0,-160.75,-340.5,2144.0,1678.0,-480.25,271.5,4
-250.75,-20.0,-739.25,-300.5,2224.0,1721.0,60.75,132.5,4
-183.5,99.25,-925.0,-111.75,2265.5,1699.5,126.25,-48.25,4
-240.5,172.5,-640.0,-168.0,2268.0,1245.75,-172.75,-140.0,4
-87.25,286.5,-604.5,-278.0,2235.75,534.5,-883.25,-119.75,4
209.75,338.25,-593.5,-253.75,2282.75,539.5,-1726.0,-55.0,4
869.25,375.25,-665.0,-393.25,2327.0,582.75,-1686.25,40.0,4
1408.75,321.25,-643.5,-431.25,1656.25,621.75,-1663.0,23.0,4
1539.5,363.25,-522.75,-546.0,1492.5,99.5,-1442.5,-210.25,4
1477.0,428.0,-756.0,-615.75,1696.75,-626.0,-1465.25,-207.25,4
1078.25,447.25,-1113.5,-598.5,1040.25,-786.0,-1316.5,-285.25,4
552.25,523.5,-673.0,-583.5,583.75,-509.75,-869.75,-484.25,4
44.25,545.0,438.25,-566.75,860.75,-13.0,-768.25,-562.75,4
-149.0,541.0,899.0,-501.0,1375.5,554.0,-804.5,-421.5,4
-283.25,511.25,1001.0,-421.25,939.25,693.0,-988.25,-422.5,4
-399.75,407.25,1266.25,-198.75,1051.0,251.75,-935.0,-445.25,4
-434.5,380.25,1399.75,14.25,744.75,-719.0,-799.5,-357.5,4
-111.25,464.75,1528.75,-21.5,-715.75,-1724.75,-471.5,-325.25,4
80.0,515.25,1502.75,8.25,-779.0,-1632.25,-317.0,-149.0,4
-32.25,570.25,1357.5,-33.75,-1080.75,-1327.75,-477.25,-217.75,4
7.25,306.75,525.25,-111.5,-1276.0,-1211.75,-956.5,-13.75,4
81.5,-45.5,-457.5,-131.75,-1129.75,-764.5,-1481.75,456.25,4
23.5,-282.75,-1330.5,-103.5,-991.0,-518.0,-1482.25,893.25,4
-262.5,-481.25,-1344.25,-50.75,1159.5,-868.25,-1598.75,1358.75,4
-183.75,-563.5,-1151.0,38.75,1263.0,-1625.0,-1530.0,1589.5,4
125.5,-434.25,-1186.0,65.0,1239.0,-1709.25,-1274.0,1654.75,4
460.25,-133.75,-1028.75,214.0,1554.25,-541.0,-1100.0,1668.0,4
720.25,-80.75,-983.5,168.75,1684.25,543.5,-646.0,1572.0,4
722.25,-165.5,-1013.0,64.0,1988.5,917.5,576.5,1444.25,4
586.0,-216.75,-530.0,339.75,2282.5,929.5,1277.0,1462.5,4
643.5,-73.75,719.75,302.5,1906.5,1347.25,1837.25,1388.5,4
727.75,83.25,1199.0,15.0,1800.75,1967.75,2021.5,991.25,4
407.0,141.0,1208.75,-439.5,1773.25,2086.25,2010.5,659.25,4
248.25,133.25,1151.25,-821.0,1812.5,1217.0,2077.0,44.75,4
5.5,55.5,1082.5,-1105.75,402.5,43.5,1912.25,-434.75,4
-280.5,75.75,871.75,-1116.25,68.75,-803.0,1788.75,-386.25,4
-370.0,63.25,387.25,-978.5,-111.0,-1102.75,1706.75,-611.75,4
-265.75,251.0,-629.25,-1165.5,-858.5,-384.25,1805.25,-808.5,4
-298.0,90.25,-1231.5,-933.0,-74.25,355.5,1820.75,-722.25,4
-428.75,-82.5,-1380.75,-736.0,41.25,102.75,1947.25,-1074.25,4
-191.25,275.25,-916.0,-548.5,375.5,-55.25,2095.0,-1451.25,4
-116.75,427.0,313.5,-345.25,210.75,-148.5,2278.75,-1577.25,4
140.5,747.25,1065.5,-212.5,-547.5,-418.75,2306.75,-1987.25,4
222.75,461.5,920.0,291.0,-105.0,-183.25,2073.5,-1981.75,4
457.5,156.0,975.75,231.25,-874.25,-629.0,2418.25,-1270.75,4
964.25,273.75,1089.5,164.0,-824.0,-763.0,2446.0,-533.0,4
878.75,349.5,793.0,136.5,-400.75,-98.25,2312.0,178.5,4
504.25,440.25,806.25,-144.0,-613.25,546.0,2281.0,765.25,4
-232.0,204.5,253.25,-103.25,158.0,1154.5,2235.25,478.5,4
-960.0,38.25,28.0,60.0,-20.75,953.0,2178.0,361.5,4
-1523.25,-4.25,640.0,309.25,214.25,670.25,1947.25,182.25,4
-1783.0,-130.25,924.25,637.25,702.5,797.5,1784.75,-7.25,4
-1745.75,-84.25,412.5,852.25,1015.0,931.0,1660.25,-246.75,4
-1553.0,-82.0,-177.75,820.25,-325.0,1092.25,1350.25,-360.25,4
-1097.75,166.0,-174.5,709.5,184.5,887.25,1146.5,87.75,4
-783.5,182.25,-342.75,721.75,455.25,233.0,989.0,627.25,4
-606.5,-87.0,-63.0,679.5,431.5,117.25,824.75,766.0,4
-464.0,-239.0,1215.25,612.5,527.75,113.0,614.5,663.5,4
-232.75,-312.25,920.25,563.25,319.5,307.5,403.25,310.5,4
-215.75,-496.0,643.25,431.0,144.25,303.5,235.75,-53.25,4
-457.5,-721.0,-172.0,316.0,-222.5,309.0,116.0,-107.25,4
-472.0,-910.75,-1461.75,340.25,-571.25,822.0,98.25,-219.5,4
-523.5,-971.0,-1609.0,146.5,-925.5,919.0,-132.5,-120.0,4
-368.25,-954.75,-1715.25,109.25,-1159.25,440.75,-189.75,453.75,4
-337.25,-1024.0,-1801.75,89.75,678.0,-161.5,-609.0,722.0,4
-309.75,-1124.25,-1230.75,102.75,608.75,-177.5,-1164.0,1422.75,4
-150.25,-785.0,-437.75,552.75,574.25,-110.0,-1655.25,2062.5,4
296.5,-515.75,-287.0,639.75,581.0,272.0,-2091.25,1893.5,4
879.0,-656.5,15.0,580.25,594.5,1473.25,-2258.75,1484.75,4
1002.25,-634.5,121.0,557.5,558.0,1548.75,-2391.0,1165.5,4
631.75,-473.25,386.75,505.75,552.0,1610.0,-2343.5,1015.75,4
193.5,-299.0,363.0,540.25,386.75,1713.75,-2028.75,748.5,4
-37.25,-212.0,25.75,519.75,183.25,1554.25,-1568.5,855.5,4
-124.5,-64.25,-342.0,375.75,-74.0,867.5,-1335.0,673.25,4
-5.0,59.25,-501.5,314.0,-354.25,411.75,-1225.0,548.25,4
338.25,99.75,-1259.0,466.0,-478.75,470.75,-1319.5,-110.5,4
674.75,185.25,-889.0,583.75,-546.0,359.25,-1470.0,-981.25,4
771.75,214.25,-435.25,371.0,-586.75,203.25,-1483.5,-984.5,4
678.5,342.25,-610.0,104.25,-621.0,-317.25,-1421.0,-1139.75,4
634.0,373.5,817.25,-53.5,-630.25,-847.0,-1230.0,-1280.0,4
655.75,408.0,1806.5,65.5,-658.5,-1058.75,-1116.75,-1130.5,4
281.5,435.75,1446.25,39.5,-662.25,-1110.25,-1088.75,-719.0,4
-73.75,477.25,-222.25,-493.5,-657.5,-829.25,-1037.75,-454.0,4
150.5,513.75,-1094.5,-796.75,-627.25,-738.5,-1007.75,-270.5,4
150.5,450.75,-1039.25,-712.0,-601.75,-845.75,-972.75,-103.75,4
-87.5,396.75,-1097.5,-612.25,-553.5,-923.5,-904.5,-211.75,4
-513.75,371.25,-1172.75,-768.75,-429.25,-618.5,-802.5,-367.75,4
-997.75,414.5,-163.25,-889.75,953.25,-683.5,-686.0,-426.75,4
-1113.5,387.75,854.5,-879.25,-137.5,-1275.5,-524.75,-760.0,4
-897.75,334.25,1393.5,-902.25,-400.5,-1649.25,-450.75,-1048.25,4
-478.25,350.25,2074.5,-518.25,-353.75,-1432.25,-433.5,-874.5,4
-260.25,310.0,2011.75,-159.5,-326.5,-1482.5,-229.25,-1235.25,4
-295.5,220.5,1247.25,-82.0,-243.5,-2370.75,63.75,-1284.75,4
-395.5,130.75,-9.5,147.5,-109.25,-2696.5,432.75,-842.25,4
-346.75,100.75,-414.75,215.25,-12.75,-2201.75,969.0,-249.25,4
-483.25,116.25,-666.0,232.75,30.75,-892.25,1180.5,-498.25,4
-545.0,130.25,-733.25,227.0,35.75,427.0,974.75,18.25,4
-327.25,68.25,-774.75,98.25,31.0,185.25,264.5,645.75,4
-58.25,36.5,-946.0,16.75,22.25,-241.75,-297.75,901.25,4
366.0,151.0,-827.25,-162.75,33.75,-804.5,-307.5,692.5,4
797.0,338.5,-916.25,-357.0,29.75,-1442.25,-306.25,352.5,4
1225.75,464.75,-869.25,-483.5,-68.75,-1369.75,-232.5,-108.5,4
1535.75,285.25,-1057.5,-533.5,-182.25,-764.25,-436.0,-360.25,4
1662.5,-22.5,-1236.25,-387.75,-246.25,-8.25,-705.75,-175.25,4
1663.5,-151.75,-1435.0,-300.0,-355.0,876.0,-799.5,-173.5,4
1695.25,-235.0,-1185.5,-273.5,-433.25,1162.0,-900.75,-41.75,4
1527.5,-415.75,-1017.0,-85.0,-496.75,844.5,-901.0,29.25,4
1397.5,-274.75,-751.25,-86.25,-614.25,583.0,-841.5,13.25,4
1249.0,357.75,-251.75,131.25,-750.75,972.0,-818.25,43.75,4
935.5,716.75,1591.0,540.25,-871.75,1188.5,-1027.25,45.25,4
319.5,727.0,1631.5,423.5,-970.75,1012.0,-1331.25,50.75,4
-415.75,498.5,1494.0,160.0,-1071.0,548.0,-1362.0,283.75,4
-1138.25,18.75,1410.75,63.25,-1141.75,627.0,-1151.0,1206.0,4
-1248.75,-422.5,843.75,57.5,-1247.75,973.75,-969.5,1864.75,4
-1352.5,-825.0,1340.5,169.75,-1365.0,1022.5,-889.25,2023.5,4
-1461.25,-776.0,1256.0,18.5,-1495.25,1120.75,-692.25,1972.25,4
-1305.75,-186.25,1152.75,-259.0,-1621.0,1090.5,-569.0,1851.0,4
-988.25,486.5,1182.0,-152.25,-1700.25,1320.5,-667.0,1797.25,4
-902.0,1114.25,664.25,-208.75,-1790.5,1202.0,-886.0,1677.0,4
-862.0,1062.25,124.25,-105.5,-1808.0,751.25,-1068.0,1571.0,4
-875.75,997.0,-641.25,356.75,-1804.75,586.75,-1144.5,1527.75,4
-606.25,982.25,-708.75,190.25,-1761.75,504.5,-972.0,1451.75,4
-392.25,275.5,-823.5,57.25,-1604.5,412.25,-644.75,1260.75,4
-55.75,-889.0,-955.5,-315.5,-1321.0,302.0,-695.25,1094.0,4
375.0,-1049.0,-908.0,-846.0,-873.75,408.75,-968.0,1140.75,4
523.0,-982.25,-321.5,-619.0,-302.5,549.75,-660.0,1210.0,4
475.75,-972.75,228.5,112.75,273.25,520.25,-20.5,1200.0,4
338.5,-989.75,-621.25,814.0,-526.0,655.0,314.5,1165.0,4
235.0,-1001.5,-703.75,717.0,-1605.0,1179.75,600.5,1191.25,4
121.5,-1016.25,-774.5,523.25,-1089.0,1508.75,435.25,1389.25,4
73.75,-86.75,-822.75,390.0,543.25,1308.25,725.75,1577.0,4
194.25,1035.75,-903.5,319.0,1280.5,1698.25,1350.75,1443.5,4
195.25,1000.75,-900.25,395.75,756.25,1936.75,2061.75,1124.75,4
-67.25,988.0,-909.25,143.25,1287.75,1450.0,1806.75,913.5,4
-195.0,738.75,-672.75,-35.0,389.0,1015.0,498.5,-296.5,4
-145.5,-114.5,-452.0,-50.75,967.75,1806.5,37.5,-1547.75,4
-231.0,-909.25,-985.75,-30.0,327.75,1716.5,77.0,-1681.25,4
-500.75,-983.75,-1031.75,-97.5,-5.75,685.5,-494.75,-1765.25,4
-717.0,-988.25,-1042.25,-152.25,-25.25,-195.75,-616.25,-1804.5,4
-605.5,-966.5,950.25,-140.75,-31.75,-321.5,-409.25,-1861.25,4
-160.25,-537.25,952.5,-195.5,-19.0,-291.25,-1091.25,-1841.0,4
355.0,396.5,982.5,-331.25,-345.0,-353.75,-1597.0,-1853.75,4
743.5,1052.25,1001.75,-530.5,-33.0,-18.5,-1572.5,-1821.75,4
931.0,1039.75,950.75,-511.5,-53.75,132.0,-1575.0,-1797.25,4
1188.25,1062.0,921.5,-152.75,-79.75,-255.75,-1005.5,-1667.5,4
1244.75,1055.5,922.75,-74.75,-85.75,-973.75,-620.0,-1450.0,4
661.5,1059.25,890.75,-123.75,-105.5,-1724.75,-147.5,-1254.5,4
-218.5,1065.25,-688.75,39.5,-83.5,-1947.75,321.0,-534.25,4
-786.25,653.5,-991.5,110.0,-26.75,-1983.0,594.0,335.75,4
-837.5,83.25,-793.0,135.25,-39.0,-1230.75,1035.25,980.5,4
-487.25,-18.25,216.25,24.5,-63.5,-928.5,1081.25,998.75,4
-749.75,-550.75,527.0,-87.0,1611.75,-833.25,1198.0,904.0,4
-1190.0,-881.0,-184.5,-103.75,1856.0,-509.5,1338.0,910.5,4
-1211.75,-1120.25,-1037.0,-9.5,1019.75,-773.75,1208.75,914.5,4
-1039.5,-915.5,-1026.0,74.0,256.5,-592.5,894.75,953.25,4
-490.5,-572.25,-977.75,67.0,-203.75,-685.5,839.0,972.5,4
-20.0,-493.25,-877.75,84.25,-210.5,-771.25,992.75,1145.5,4
421.25,-299.5,-746.75,107.75,-197.75,291.75,935.0,1295.0,4
702.75,-339.0,-825.75,63.0,-177.25,55.25,667.75,1333.75,4
714.0,-262.5,-919.5,-8.0,-162.5,27.5,513.75,1363.75,4
651.75,-10.0,-337.75,-35.5,-169.75,569.25,690.75,1492.5,4
602.5,232.5,-58.0,-177.25,-188.5,1385.5,1300.5,1423.25,4
585.0,221.25,-524.5,-241.5,-184.5,1890.25,1382.0,1163.25,4
392.0,282.0,-442.75,-219.0,165.25,1552.0,1482.25,917.0,4
179.25,490.5,-505.25,-185.75,503.0,697.75,1698.25,660.5,4
12.75,711.25,-1018.5,-158.0,720.0,590.0,1787.25,482.25,4
-74.25,708.0,-990.5,-167.75,865.75,398.5,1781.0,251.5,4
152.0,602.75,-709.25,-507.75,651.0,536.5,1899.5,-282.25,4
735.0,941.5,-375.25,-797.75,576.25,1226.75,1453.0,-399.25,4
803.5,1206.0,-486.25,-686.0,709.75,1644.0,940.0,-314.5,4
744.5,1154.25,1271.75,-576.0,821.0,1756.25,1094.25,-363.5,4
702.0,1149.25,1417.0,-436.5,967.0,1720.0,1170.5,-311.5,4
456.25,1153.25,1186.0,-147.25,1233.5,1160.25,1059.5,-428.5,4
239.5,596.0,1198.5,-159.75,1468.25,-229.0,804.75,311.75,4
-6.75,337.0,1172.0,-34.0,1700.5,-158.75,333.5,964.25,4
-154.25,607.5,1105.5,106.5,1646.0,-389.0,-62.0,984.0,4
-254.25,1019.5,879.75,327.5,1613.0,-83.5,-1475.25,1028.0,4
-298.5,731.25,-190.0,221.5,1695.25,1118.0,-1679.0,1221.5,4
21.5,109.5,-1814.0,165.0,2134.5,324.0,-1041.0,1309.5,4
-81.5,-552.75,-2053.0,777.0,1975.5,146.5,-421.75,1350.5,4
-1175.5,-1620.0,-942.0,1143.25,2043.5,818.5,618.75,1663.75,4
-1309.0,-1801.75,57.25,932.75,1447.25,517.0,763.25,1839.5,4
-1121.5,-1721.0,533.0,617.25,-876.0,-320.25,697.25,1876.5,4
-1400.25,-1780.0,631.5,516.25,-1778.0,-556.5,1072.0,2069.25,4
-1384.5,-1517.0,-203.25,446.0,-2315.75,-624.25,1367.75,2159.25,4
-1174.5,-1329.0,-1288.0,513.0,-1491.5,27.0,1541.5,2245.25,4
-1007.5,-905.75,-1275.5,358.0,-319.5,-13.0,1530.75,1968.75,4
-695.5,-125.5,-491.75,283.25,711.0,-402.75,1264.0,1703.0,4
-532.0,115.5,-91.25,239.5,1641.5,-724.5,1079.25,1364.75,4
-168.5,320.75,-221.5,162.0,1577.5,-1378.75,927.25,1139.5,4
-26.75,461.5,-790.0,137.5,475.25,-1388.0,933.0,1080.25,4
273.75,479.5,-949.5,149.25,-326.25,-919.75,167.5,1317.75,4
333.5,429.25,-612.5,61.25,-398.0,-1375.0,-679.75,1889.0,4
549.25,335.0,-381.0,-33.0,-409.0,-2925.5,-1131.75,2050.5,4
454.75,210.0,88.25,-113.25,-361.25,-2723.5,-907.5,2039.0,4
455.5,40.0,-38.5,-238.75,-991.75,-2637.0,-159.5,1922.5,4
353.25,-40.25,-399.5,-35.75,-1479.0,-1648.5,-111.25,1915.25,4
88.25,-28.25,-688.75,139.0,-1602.75,-411.5,-29.75,1850.25,4
30.5,23.75,-457.25,134.75,-2156.75,847.5,-110.75,1919.25,4
-96.0,49.0,-240.0,28.75,-2119.0,1911.5,-5.5,2014.0,4
-112.0,133.75,-141.5,-6.25,-1957.25,1990.0,218.25,223.0,4
-225.5,231.0,-242.0,-108.75,-1993.0,1644.25,458.5,-139.5,4
-98.0,208.25,-284.5,-261.25,-1962.75,1081.5,593.0,-321.0,4
-39.0,117.25,139.75,-259.0,-1599.25,1193.75,699.5,-463.0,4
59.75,105.25,275.75,-236.5,-1576.25,935.5,656.75,-956.75,4
196.0,30.75,1063.75,-156.25,-1404.75,685.75,226.25,-1517.5,4
270.75,-9.25,821.25,-210.25,-1334.5,279.0,-97.5,-1841.5,4
379.25,-9.5,664.5,-259.75,-1109.75,-58.5,-63.75,-2013.75,4
300.25,120.75,604.5,-238.5,-868.5,-296.25,58.25,-1961.5,4
247.75,-18.5,237.0,-180.25,-837.75,-1002.75,102.25,-1935.25,4
243.25,-329.75,-471.75,-130.75,-692.0,-1579.75,-218.25,-1647.25,4
254.0,-237.25,-637.25,-57.75,-528.0,-1960.0,-1126.5,-1612.75,4
168.5,-110.5,-496.25,84.0,-540.25,-1952.0,-1488.0,-1817.25,4
59.25,72.5,-443.5,89.75,-827.75,-2029.75,642.75,-1879.0,4
-15.0,109.75,-536.25,-27.0,-1197.0,-2082.0,616.25,-1971.25,4
-98.75,346.5,-535.5,7.25,-1079.75,-2071.5,611.5,-1997.5,4
-196.5,351.5,-676.0,101.25,-738.5,-1416.25,617.25,-2032.25,4
-232.75,-57.0,-859.25,75.0,-451.75,-643.25,625.5,-2125.5,4
-314.5,-300.25,-822.75,82.5,114.25,-76.5,505.5,-2153.5,4
-386.75,-326.0,-700.25,27.75,581.25,-36.5,230.25,-2186.0,4
-231.5,-176.0,-511.75,-54.75,525.25,-57.0,-111.0,-2196.75,4
60.75,-589.5,-246.75,-191.75,770.0,279.0,-256.25,-2195.25,4
156.0,-841.25,80.25,-262.0,1190.0,13.5,-287.5,-2134.25,4
136.25,-916.5,156.75,-162.5,1575.25,114.25,-2197.0,-1784.75,4
205.5,-735.0,293.25,-147.25,1937.0,-217.25,-1818.5,-1465.75,4
81.5,-326.0,802.5,-139.0,2020.25,-618.75,-1448.5,-1285.25,4
-131.75,-116.75,1063.25,-65.25,1998.75,-572.25,-1727.5,-562.25,4
-247.75,-113.0,1123.0,7.25,1998.5,-731.0,-2038.25,295.75,4
-334.0,-156.5,1016.0,-32.25,1994.0,-1133.25,-2152.5,705.0,4
-288.25,-182.75,989.0,-225.25,1939.75,-891.75,-2455.5,641.25,4
40.0,-182.0,867.5,-390.75,1959.25,33.0,-2360.5,685.25,4
472.0,-189.0,532.25,-333.25,2223.25,-128.0,-2692.25,712.5,4
828.75,-231.25,336.75,-152.0,2463.0,-268.5,-2904.75,734.5,4
942.5,-164.0,260.25,-2.25,2113.5,-1318.5,-1630.25,656.25,4
786.5,-40.25,180.25,-45.75,1767.25,-1273.0,-421.25,428.25,4
478.0,136.25,59.5,-104.25,1771.75,-255.5,-110.5,182.25,4
-18.25,361.5,-92.75,-6.75,1808.5,-176.25,-358.5,300.25,4
-331.75,530.75,-250.5,40.0,1648.5,27.5,-503.25,511.25,4
-487.5,562.5,-237.0,100.75,-217.5,104.75,-339.5,809.0,4
-647.75,487.25,-200.75,108.0,-1010.0,-389.5,210.75,1076.0,4
-654.75,432.0,-441.25,66.25,-1461.75,-749.75,430.25,1147.75,4
-490.75,345.0,-791.0,61.75,-1696.75,-786.0,250.5,1249.25,4
-227.25,430.25,-789.25,17.5,-1920.5,80.5,387.25,1175.25,4
-97.5,590.5,-649.75,-1.25,-2097.25,651.5,482.5,927.25,4
-62.0,616.0,-465.5,-33.25,-2149.0,1061.25,761.0,816.25,4
-147.5,633.5,-259.75,-122.0,-2184.75,1571.0,981.5,1168.25,4
-257.0,503.5,-62.75,-171.25,-2052.75,1983.25,1022.25,1595.0,4
-173.0,449.5,294.5,-190.5,-2160.75,1820.0,1067.0,1819.75,4
36.5,432.5,630.25,-175.0,-2094.75,1699.5,1179.75,1908.25,4
31.0,328.75,1039.0,-204.75,-2040.5,1537.75,1383.75,1886.25,4
15.75,194.0,1197.5,-276.0,-1953.25,1490.0,1581.25,1851.0,4
131.5,45.5,1227.25,-240.5,-1641.0,1564.0,456.25,1844.0,4
160.25,86.0,1004.75,-277.0,-1676.5,1567.25,-177.25,1792.0,4
395.5,145.75,618.25,-263.25,-1747.25,1550.5,26.25,1708.0,4
682.25,148.0,48.25,-255.75,-1719.25,1433.5,39.75,1826.75,4
994.5,86.75,-373.5,-316.5,-1255.75,1374.5,-46.5,1792.25,4
1200.75,23.75,-180.75,-217.5,-1261.75,1296.5,-102.5,1600.0,4
1234.5,53.25,-131.5,-335.0,-1254.25,1213.75,-142.5,1562.75,4
1163.0,-12.75,-296.0,-468.25,-528.0,1143.0,-100.75,1350.25,4
808.0,-128.5,-342.75,-415.25,104.5,904.0,-34.75,1135.5,4
346.25,-266.5,-507.5,-565.5,138.25,653.75,-18.25,1125.25,4
11.75,-329.75,-465.5,-588.0,1120.75,676.25,1.25,1161.5,4
-220.25,-312.0,-469.25,-612.25,1863.75,601.0,154.75,1160.75,4
-319.75,-389.25,-394.25,-541.5,1642.5,-276.5,491.25,1047.75,4
-258.75,-269.75,-149.75,-378.5,1050.0,-1028.0,747.75,976.5,4
-60.0,-194.5,110.25,-276.0,1100.25,-1317.25,440.0,1078.25,4
221.5,-104.5,364.5,-402.75,1408.75,-1243.0,134.25,1366.75,4
384.5,3.5,392.75,-540.25,1507.25,-754.5,185.5,1545.25,4
230.0,67.75,403.5,-431.5,2558.25,-636.75,346.75,876.75,4
-190.75,65.75,398.5,-261.25,2545.75,-616.75,401.0,-137.75,4
-194.75,213.75,388.0,-40.5,2665.0,-690.5,451.5,-870.25,4
156.25,334.75,290.5,99.75,2794.5,-1645.0,551.25,-708.0,4
403.0,414.5,147.0,215.0,2751.75,-1477.5,578.75,-558.25,4
482.5,299.75,41.5,252.0,2727.75,-1175.75,414.75,-336.5,4
416.75,208.5,-7.25,227.25,2676.5,-709.0,161.5,-319.75,4
254.75,130.75,-38.0,296.25,2650.5,-329.0,-134.25,-272.0,4
-157.25,-221.0,-138.75,541.75,2594.5,-376.75,-775.75,-161.5,4
-834.5,-799.5,-650.0,1282.0,2442.25,-636.5,-1441.25,-531.75,4
-1083.5,-822.5,-895.0,1410.25,2149.75,-624.75,-1531.25,-472.0,4
-997.0,-609.0,-858.5,1246.0,1867.5,278.75,-1120.0,-302.0,4
-934.25,-609.75,-887.75,1375.25,1342.0,1584.25,-889.5,-623.25,4
-794.75,-471.0,-872.0,1465.25,739.5,1628.75,-529.0,-893.0,4
-537.5,-397.25,-714.0,1525.5,195.0,1266.25,-471.75,-1028.5,4
-459.25,-276.25,-767.0,1341.75,1.25,1088.25,-40.0,-1233.5,4
-279.0,-261.5,-526.0,795.75,-97.5,1150.75,34.5,-1625.0,4
-315.25,-239.0,-455.25,467.75,-219.5,1173.0,-452.75,-1917.75,4
-193.25,-25.5,-204.25,94.5,-260.25,1242.25,-826.0,-1792.0,4
-118.0,137.75,-10.5,46.0,-353.25,1633.75,-792.5,-1816.5,4
95.5,208.0,202.25,-46.75,-402.0,1866.0,-462.75,-1740.5,4
286.0,106.0,339.0,-125.75,-466.0,1844.0,-35.0,-1752.75,4
164.75,49.0,274.5,-108.0,-488.25,1821.5,24.25,-1741.5,4
-43.75,-50.75,132.0,122.0,-960.0,1815.5,-117.25,-1765.0,4
-142.75,-79.75,-182.75,211.75,-1567.25,1827.75,372.0,-1653.5,4
29.75,-80.0,-339.0,-83.5,-2107.75,1864.25,1255.0,-1426.5,4
168.5,1.75,-455.5,63.75,-2545.75,1743.0,1426.75,-1206.0,4
105.75,107.0,-483.5,843.0,-2571.5,1452.5,1259.5,-750.25,4
-119.5,192.0,-422.0,985.25,-2553.25,1502.5,1324.75,138.5,4
-218.25,224.75,-309.75,775.25,-2521.75,610.75,1053.0,801.75,4
-204.25,210.5,40.75,295.75,-2499.25,-220.75,724.75,1471.5,4
-280.0,232.75,588.0,-308.5,-2442.5,-541.5,781.5,1830.75,4
-692.25,226.25,921.0,-899.5,-2395.0,-640.25,969.25,1927.0,4
-802.5,281.0,909.0,-1231.0,-2337.5,-78.5,1118.75,2014.25,4
-298.25,449.0,641.25,-1207.25,-2300.25,752.0,1344.25,2066.0,4
622.5,567.5,227.0,-1102.5,-2272.0,1030.75,1456.25,2084.0,4
964.25,391.75,-133.75,-1036.0,-2243.5,703.0,1418.75,2066.5,4
1008.0,83.0,-330.5,-1208.75,-2034.5,400.0,1636.0,2006.75,4
708.25,-136.5,-267.0,-1484.25,-923.0,213.5,1533.75,1989.5,4
419.25,-207.5,-51.0,-1533.5,-154.0,395.75,1319.25,1979.75,4
232.25,-119.25,87.5,-1414.75,-115.25,117.25,1051.75,1897.5,4
112.75,-84.75,200.5,-954.75,-83.75,36.75,857.25,1729.0,4
116.5,-160.0,244.25,-276.25,-41.0,-45.0,1073.75,1298.25,4
131.5,-115.75,234.75,-40.5,0.5,-118.0,1118.75,833.25,4
18.75,-46.0,343.25,121.75,22.0,-120.0,1033.25,460.0,4
-73.5,-58.0,314.5,146.25,-89.75,-138.5,958.25,22.5,4
-64.5,-148.5,337.0,99.0,-1842.75,-29.25,979.5,-442.5,4
-137.0,-247.0,331.75,43.75,-1987.5,-155.5,1062.25,-570.25,4
-127.0,-100.25,143.5,29.75,-1989.75,-169.0,1179.25,-563.25,4
-81.25,128.75,47.0,129.5,-1977.75,-163.25,1060.25,-733.75,4
-15.5,257.5,-85.0,347.75,-1598.75,-117.75,857.5,-772.5,4
39.25,253.0,-167.0,447.0,-465.0,560.0,746.75,-928.0,4
64.75,180.5,-293.0,420.75,23.5,126.0,628.5,-953.25,4
80.25,97.25,-405.5,462.25,37.5,-105.5,594.0,-983.5,4
53.25,162.5,-452.75,560.0,42.25,105.0,506.25,-949.0,4
52.75,301.5,-658.5,619.0,51.75,-116.75,570.5,-968.5,4
20.25,192.5,-865.0,700.25,61.0,-49.0,577.75,-993.75,4
-11.5,92.5,-677.75,756.0,61.25,-172.75,549.5,-944.0,4
-18.5,14.0,-190.0,637.5,63.75,-392.5,115.5,-952.0,4
-25.75,-206.5,183.0,355.75,52.75,-460.0,-316.25,-749.0,4
-28.0,-304.75,368.75,57.25,48.75,-502.5,-527.75,-244.5,4
6.25,-183.25,445.5,-59.0,77.0,-622.5,-682.0,-187.0,4
37.75,12.0,420.25,85.25,115.0,-451.5,-793.5,-582.75,4
38.0,-120.0,152.5,219.75,541.0,-321.0,-896.5,-1046.25,4
25.0,-353.75,-7.0,267.25,936.0,-70.5,-1073.75,-1359.0,4
-24.0,-502.0,-1.5,392.0,1236.25,171.0,-1077.75,-1407.75,4
-82.0,-638.75,-67.75,264.25,1450.75,-99.25,-1260.75,-1569.25,4
-81.0,-543.25,-235.5,102.75,1612.75,-227.0,-1341.25,-1527.75,4
-48.25,-332.75,-403.75,38.25,1660.75,-297.0,-1103.25,-1409.0,4
-69.5,-217.25,-153.75,-141.5,1618.0,-421.0,-943.0,-1451.25,4
-90.25,-303.75,187.25,-388.0,1630.0,-425.25,-961.75,-1282.75,4
-133.0,-312.25,196.5,-586.5,-467.0,-381.0,-995.25,-1100.0,4
-165.25,-212.75,-185.0,-421.25,-518.75,-297.25,-1003.5,-925.5,4
-124.25,-113.0,-658.5,-275.0,-516.0,-153.75,-1062.75,-748.0,4
-79.5,-163.25,-785.75,-196.5,-406.0,-221.25,-1108.0,-601.0,4
-54.75,-161.25,-794.25,-131.75,-297.5,-528.25,-1272.0,-535.5,4
-38.0,140.0,-331.75,-94.75,-249.75,-965.25,-1221.75,-503.25,4
-67.25,453.0,155.5,-22.5,-201.25,-1517.75,-937.0,-475.0,4
-103.5,612.25,333.25,-41.75,-84.5,-1696.0,-681.5,-471.25,4
-104.5,473.0,766.25,41.0,36.0,-1683.75,-493.5,-650.5,4
-86.5,410.0,946.25,57.0,51.5,-1708.5,-732.75,-906.75,4
-74.75,385.25,989.25,52.75,87.25,-1551.0,-886.75,-960.0,4
-82.0,319.75,768.25,49.25,81.75,-1292.5,-745.25,-997.25,4
-65.0,231.75,245.0,33.0,75.75,-1005.5,-362.25,-1043.75,4
-66.25,68.75,-134.25,3.75,66.5,-251.5,-98.75,-1049.75,4
-85.75,8.25,-112.5,-68.75,55.75,124.75,-57.75,-836.0,4
-70.25,-3.25,262.0,-46.75,45.75,169.75,71.5,-562.0,4
-26.5,89.5,374.5,3.0,-791.5,10.5,18.5,-222.25,4
9.0,93.0,330.0,23.75,-1966.25,129.5,51.75,43.0,4
15.5,-16.25,1.75,30.5,-1965.5,242.0,494.5,226.0,4
-8.5,-62.0,-334.0,116.75,-1936.0,313.0,1025.0,495.75,4
-30.0,-48.25,-157.0,114.75,-1906.0,776.25,1354.0,765.0,4
-28.25,-70.5,48.25,144.75,-1920.75,1663.25,1407.25,847.75,4
