0,1,2,3,4,5,6,7,label
-1212.5,-665.5,-180.75,199.25,555.75,1454.5,612.5,236.0,5
1380.0,-522.25,-931.0,-125.75,652.5,1536.25,660.5,727.75,5
1672.25,-429.75,-1738.75,-288.0,732.25,1678.75,452.75,830.25,5
1624.25,-185.25,-2116.75,317.75,861.0,1593.25,158.25,1025.5,5
1287.0,-215.0,-1539.25,667.5,930.25,1252.75,-1144.75,903.0,5
906.25,-76.75,-287.5,942.25,765.0,734.75,-1200.5,698.0,5
169.75,40.75,-240.25,1063.75,517.25,97.5,-884.5,311.75,5
-1024.5,-29.5,-149.5,960.0,232.0,-381.75,-446.5,82.25,5
-1126.75,-46.25,-101.75,855.0,194.5,-593.75,67.25,38.0,5
-454.5,-219.0,287.25,364.0,168.75,-787.25,45.0,-105.0,5
-509.0,-115.5,1303.25,-321.75,-85.75,-845.25,2.25,137.0,5
-213.25,101.75,2015.25,-563.5,-322.75,-868.5,-38.0,286.0,5
-187.5,464.25,2083.75,-466.75,-712.75,-885.0,169.0,-118.25,5
-446.5,705.0,2125.5,-390.5,-1064.25,-931.75,246.75,-501.75,5
-1354.0,368.5,2041.5,63.5,-645.75,-896.0,-23.5,-328.75,5
-1627.0,-658.25,705.25,886.25,369.25,-178.0,-522.5,408.25,5
-1239.5,-1238.75,-779.75,1154.75,264.75,-27.5,-115.5,507.5,5
-1548.0,-979.0,-1061.0,1019.5,-54.75,-509.25,422.0,123.5,5
-1568.25,-457.25,-1123.5,564.5,-162.75,-1002.0,135.75,146.5,5
-1371.5,-288.5,-1158.25,392.75,-602.5,-1104.75,87.75,-74.5,5
-1181.0,240.75,-1191.5,-195.0,-744.5,-1178.25,63.0,-182.0,5
-350.0,462.5,-1426.25,-802.75,-992.0,-1186.75,107.0,-221.75,5
1209.0,798.0,-1518.75,-1464.0,-1473.25,-1322.75,384.0,-416.75,5
1247.0,781.25,-1354.25,-1400.5,-2019.25,-1215.5,871.25,-510.25,5
934.75,758.75,-691.0,-1319.5,-2020.5,185.75,1179.75,-474.25,5
424.5,615.75,607.75,-1183.25,-1767.75,165.25,1169.25,-452.25,5
-38.0,476.5,1203.75,-719.5,-1819.0,-536.75,1171.5,-489.25,5
-158.75,403.75,1008.25,-494.0,-1535.25,-724.0,1414.0,-274.25,5
-27.0,335.25,1060.75,-409.5,-1373.25,-959.75,1191.0,-220.75,5
247.5,324.0,1258.5,-425.5,-1371.0,-901.5,-366.5,-235.5,5
561.75,225.0,1462.5,173.5,-1626.0,-802.75,-1177.5,-517.75,5
614.0,406.0,1512.75,767.75,-1838.25,-81.5,-1211.25,-860.25,5
84.5,309.75,1268.0,834.5,-1542.0,591.25,-1195.0,-829.0,5
-57.75,256.0,844.25,812.5,-1189.0,1052.0,-1053.75,-522.75,5
-554.0,143.25,430.5,768.0,-906.75,1200.25,-53.5,-289.75,5
-1128.0,159.75,180.5,332.0,-815.25,1153.75,727.5,-68.25,5
-1412.5,73.25,-213.25,210.5,-701.75,1085.0,912.5,105.75,5
-1596.75,-104.25,-416.5,600.5,-591.75,1040.5,832.5,100.25,5
-1786.5,-195.25,-672.0,348.5,-318.75,1012.75,831.75,340.5,5
-1565.25,-374.75,-694.25,-625.5,-163.75,1008.0,340.25,419.0,5
292.75,-455.25,-796.25,-532.25,-10.0,1016.75,428.25,312.25,5
2013.5,-528.25,-1231.75,695.0,110.25,790.5,160.0,378.5,5
2661.25,-542.75,-1878.5,893.5,52.5,875.5,293.25,630.5,5
2910.0,-608.5,-2487.0,207.75,-54.0,909.25,151.5,554.5,5
2319.75,-485.5,-1878.0,-207.0,-177.0,1002.75,102.5,328.5,5
1240.0,-278.0,-592.5,-72.25,-117.5,1092.75,33.25,228.0,5
474.0,-100.5,-619.25,46.5,145.75,1182.5,-112.0,33.0,5
521.75,62.0,-640.75,-186.5,223.0,1244.75,-143.25,-83.0,5
1382.25,109.75,-601.0,-225.75,144.0,1245.5,-358.5,-202.25,5
321.75,38.75,-475.25,-310.75,320.75,1255.25,-372.25,-97.75,5
159.75,-45.75,-582.25,-269.5,594.5,1268.0,-404.75,33.75,5
185.0,-74.75,-438.75,-140.5,949.25,1251.25,-290.75,5.25,5
-115.75,-206.75,-18.25,69.5,1163.25,1210.5,-284.25,1.25,5
-652.0,-363.75,168.0,202.25,1303.75,1267.75,-269.0,-31.5,5
-967.75,-486.5,43.25,240.0,1303.75,1320.75,-265.25,78.5,5
-1146.25,-431.0,-290.25,245.75,1195.75,1078.25,-172.5,177.0,5
-1658.5,-207.5,-465.5,251.25,1017.0,931.75,-60.25,243.75,5
-1700.75,-183.75,-1194.75,393.0,1003.75,879.25,-295.5,752.75,5
-1230.5,-399.25,-1924.5,600.0,842.0,651.75,-426.25,876.75,5
589.25,-440.0,-1811.75,884.5,654.25,392.75,-466.0,762.5,5
2036.25,-432.0,-1487.5,829.75,638.25,351.75,-459.0,889.0,5
2522.0,-500.75,-902.25,830.25,534.5,78.25,-512.75,850.75,5
2494.25,-460.0,-72.25,786.25,431.5,-527.5,-462.25,758.5,5
1849.5,-296.25,366.5,756.5,709.25,-626.5,-408.5,750.5,5
845.25,-20.25,1125.0,490.0,882.0,-595.0,-271.5,581.75,5
761.5,121.75,989.0,77.5,1247.5,-282.0,-215.0,569.5,5
340.5,167.75,869.25,134.5,1175.5,-67.5,-156.0,497.5,5
-652.75,293.5,995.0,60.25,847.75,-106.0,-18.5,371.0,5
-1095.0,449.5,810.25,-334.5,570.25,-218.75,143.5,70.5,5
-1221.25,415.0,80.25,-654.0,555.0,-483.25,353.5,-266.25,5
-1605.0,315.75,-382.0,-309.0,627.25,-697.5,461.25,-569.75,5
-2316.75,390.75,265.25,145.0,271.5,-791.0,491.0,-805.0,5
-2326.25,367.5,1054.0,-118.75,-49.0,-912.75,440.0,-956.25,5
-2140.5,254.75,1043.5,-261.25,-130.0,-869.0,389.0,-1215.0,5
-874.25,124.75,1184.25,-429.25,122.25,-556.75,312.5,-1316.0,5
-330.0,231.25,1406.25,-604.75,400.5,-556.5,245.5,-1208.0,5
-279.75,349.0,1048.25,-574.0,751.25,-770.75,138.0,-1242.5,5
-271.0,278.0,-61.5,-561.25,891.0,-732.0,126.0,-1080.5,5
-857.75,158.25,-432.75,-412.25,1056.75,-529.25,122.0,-578.0,5
-1624.5,35.0,-155.0,-363.5,999.75,-281.5,18.75,-197.0,5
-1503.75,-97.25,69.5,-202.5,674.75,62.5,-58.5,140.0,5
-858.75,-287.5,1931.5,-123.0,546.25,629.25,-219.5,32.0,5
-409.75,-368.0,2042.25,63.75,518.0,1101.0,-205.75,10.5,5
179.25,-284.75,1647.0,368.25,736.5,1151.0,-13.75,53.0,5
337.5,-57.25,996.25,424.0,766.5,819.75,193.0,-69.25,5
-4.75,231.75,1136.25,269.0,511.75,8.75,707.5,-341.5,5
-819.25,453.5,768.75,82.5,301.5,-969.0,611.5,-235.5,5
-647.75,471.25,399.75,-192.0,373.25,-1590.5,30.75,-156.0,5
-330.25,400.5,191.5,-556.5,327.25,-1339.75,-383.0,-184.5,5
-288.25,327.25,57.75,-608.5,207.25,-1107.25,-555.0,-128.75,5
-438.25,280.0,397.0,-395.0,156.25,-858.0,-272.0,-72.25,5
-882.0,417.75,448.5,-425.75,82.5,-862.5,49.5,-25.5,5
-164.25,543.5,597.5,-559.5,75.25,-946.5,67.25,-16.25,5
365.0,530.0,417.0,-634.0,6.75,-840.25,-63.0,150.5,5
556.25,290.0,-80.5,-789.5,230.5,-745.25,-299.0,475.75,5
536.0,-159.75,-515.75,-888.0,517.25,-587.25,-271.25,790.25,5
1095.5,-579.0,-1097.5,-872.0,910.75,-514.5,-290.0,1375.25,5
2237.75,-972.0,-1815.25,-776.75,951.25,-510.75,-371.75,1694.75,5
1206.0,-1008.5,-2550.0,-183.5,876.25,-443.25,-618.0,1287.75,5
1251.25,-802.75,-2711.5,402.5,805.0,1741.5,-793.5,875.25,5
1631.0,-671.25,-2247.75,552.25,672.5,1812.5,-839.5,864.25,5
772.0,-567.0,-1347.75,443.5,525.25,1648.75,-836.0,960.5,5
397.0,-293.25,-947.75,-8.5,337.75,1476.0,-779.75,858.75,5
959.5,-56.5,212.0,-6.75,80.0,1292.0,-561.25,602.0,5
1030.0,238.5,1241.75,198.0,-151.5,684.25,-364.75,185.5,5
1415.5,470.25,537.75,273.5,-334.0,129.75,-275.25,-164.0,5
2063.0,416.75,-431.75,212.5,-446.25,-406.75,-267.75,-589.5,5
1894.5,178.5,-482.5,-153.5,-499.75,-1148.25,-175.75,-620.25,5
565.25,208.75,-1088.5,132.25,-525.75,-1319.5,-91.5,-631.75,5
-315.5,444.25,-2144.5,108.75,-518.75,-1519.75,-125.25,101.5,5
-380.0,438.25,-2056.0,-124.75,-486.75,-1695.0,-91.75,611.5,5
-489.25,450.75,-1944.5,-174.5,-345.5,-1253.75,76.75,978.75,5
-458.5,560.5,-1971.0,-128.75,-278.0,-161.0,95.25,1116.5,5
-419.75,476.25,148.75,67.5,-370.0,101.5,-196.25,1039.75,5
-383.5,407.0,882.25,143.25,-376.75,565.0,-293.5,685.25,5
-365.0,329.25,1822.5,168.5,-424.25,1100.5,-270.0,462.0,5
-741.25,219.75,2042.5,48.0,-448.5,1327.25,-184.0,324.75,5
-1268.25,22.0,1334.5,-11.5,-581.25,1105.0,-243.5,298.0,5
-1993.75,-199.75,530.75,-62.75,-877.75,872.0,-463.75,261.75,5
-2400.25,-231.25,588.25,-85.25,-928.75,729.5,-373.75,224.0,5
-2395.5,-344.25,604.5,-37.5,-735.75,449.0,-77.5,214.75,5
-2333.0,-521.75,-272.25,0.75,-575.0,32.75,350.25,153.25,5
-1785.75,-638.75,-1118.25,35.5,-429.5,-20.5,595.0,111.0,5
-886.75,-615.75,-1459.5,78.75,-152.25,54.0,603.5,-25.5,5
-753.75,-589.25,-1121.25,-60.25,-137.25,266.75,571.0,-45.5,5
-283.5,-618.25,21.5,-149.25,-235.25,479.5,763.75,-254.0,5
-291.5,-647.75,126.0,-223.75,-495.0,588.75,1089.25,-747.5,5
-284.25,-478.75,162.25,-670.25,-863.25,736.75,1676.75,-1200.5,5
-171.75,-23.75,419.75,-983.0,-983.25,768.75,2201.0,-1364.25,5
-586.0,313.0,768.0,-689.0,-1119.0,877.5,2007.25,-1025.0,5
-1057.5,308.5,385.25,113.0,-836.75,1008.75,1053.5,-103.75,5
-1284.25,-153.0,-389.25,1051.0,-558.25,988.25,191.75,487.0,5
-989.25,-183.75,-375.25,1311.0,-1065.25,1062.5,192.25,501.5,5
-494.25,115.75,-185.5,1116.25,-1198.0,1035.25,634.25,601.0,5
442.5,122.25,-255.75,1075.25,-1215.0,1020.25,1013.5,57.25,5
-333.0,50.25,-397.0,844.75,-1128.5,1057.0,1483.0,-582.25,5
-659.0,-24.75,-752.5,682.25,-869.5,1057.5,1412.5,-543.5,5
-870.0,-256.5,-797.25,672.25,-660.75,1047.5,1064.5,-1187.5,5
795.0,-291.0,-1514.75,473.75,-99.75,894.0,693.5,-1287.0,5
1160.5,-326.0,-724.5,384.25,93.0,377.5,532.75,-1184.5,5
1442.5,-266.75,-521.0,101.75,271.25,-264.75,577.75,-1130.25,5
-326.25,-161.5,-847.25,-14.75,661.75,-647.5,560.5,-470.25,5
-7.5,8.5,-1129.75,-154.5,1058.25,-691.25,515.25,144.75,5
264.5,153.25,-1185.75,-196.5,926.5,-702.75,353.75,185.0,5
2386.75,168.0,-1520.25,-292.5,743.75,-665.75,570.5,194.0,5
2508.0,154.25,-1587.5,-244.0,723.25,-491.5,819.75,205.75,5
2370.0,59.25,-553.0,-223.25,736.0,-271.0,822.75,65.75,5
1721.0,152.25,212.25,-410.0,899.0,-16.75,616.5,-54.0,5
1150.75,366.5,340.75,-581.0,1021.75,197.25,645.25,-641.5,5
158.75,824.75,1779.25,-999.25,1087.5,-174.5,638.5,-869.0,5
-589.75,867.25,1315.25,-1228.0,1230.25,-390.0,868.0,-568.75,5
-975.75,777.75,784.0,-1227.5,1273.0,-678.5,1142.75,-394.25,5
-2195.75,811.75,1392.0,-1254.75,1051.5,-1287.0,1154.25,-427.0,5
-2638.75,804.0,2016.5,-1036.0,940.0,-1359.0,1008.25,-170.25,5
-2320.0,807.25,2285.0,-725.0,906.75,-1286.75,900.0,-160.25,5
-2134.0,593.5,2260.25,-247.25,716.25,-1139.25,526.25,-46.5,5
-1926.5,341.25,1635.0,0.75,677.0,-992.0,128.75,41.25,5
-1870.0,278.25,374.75,225.5,589.5,-965.0,-345.75,116.75,5
-1569.0,-22.75,37.75,552.75,571.5,-744.25,-423.75,485.75,5
-1481.25,-276.5,-37.75,662.25,381.0,-716.0,-335.0,497.5,5
-721.0,-415.75,-19.25,649.0,85.0,-712.25,-385.0,126.75,5
153.0,-293.75,-272.25,413.5,-199.75,-522.75,-333.5,-286.75,5
749.25,-288.0,-275.75,348.5,-244.75,-295.25,-364.0,-323.25,5
994.75,-301.75,-782.0,400.0,-206.25,-99.25,-433.25,-217.25,5
1120.5,-361.75,-1170.25,497.75,23.0,-50.25,-433.0,-237.25,5
1228.5,-376.0,-1789.75,353.25,185.25,146.75,-483.5,-180.75,5
1445.75,-259.25,-2185.25,292.25,153.0,262.5,-702.0,150.75,5
1583.25,-148.25,-2222.75,227.75,2.75,306.25,-1015.0,430.75,5
1488.25,20.0,-2273.25,109.25,-172.75,348.5,-1448.75,383.25,5
1346.0,79.0,-2290.0,220.0,-223.75,302.5,-1415.5,619.0,5
879.25,124.5,-2288.5,484.5,-313.5,266.75,-1064.5,891.75,5
227.75,146.75,-2124.25,512.75,-465.0,308.25,-844.0,883.5,5
-105.0,84.25,-1991.5,204.0,-645.75,314.0,-715.5,898.75,5
-43.75,-59.25,-1884.75,4.25,-634.75,203.25,-582.75,709.75,5
2.75,-185.0,-1692.5,-345.25,476.75,129.0,-576.0,504.75,5
-187.75,-352.5,-1658.0,-637.75,1360.75,130.75,-565.5,343.5,5
-866.25,-502.5,-1628.75,-776.0,1417.25,51.75,-508.5,331.5,5
-1068.0,-533.25,-1592.5,-784.0,1404.25,77.75,-493.0,455.25,5
-1003.25,-511.5,-1751.75,-366.25,1389.75,331.0,-435.5,399.25,5
-961.25,-390.5,-334.5,161.5,1352.5,696.25,-505.25,311.0,5
-1002.75,-311.5,45.75,194.5,1287.5,950.75,-506.25,217.0,5
-916.5,-345.25,1247.75,183.5,1147.75,1098.75,-569.5,155.25,5
-500.25,-400.25,1667.25,84.75,1081.75,1222.5,-589.0,27.0,5
-646.25,-381.75,494.75,-297.5,894.5,1219.75,-435.75,-73.0,5
-1927.75,-260.25,-57.0,-102.0,454.25,1029.75,-319.25,-422.0,5
-1546.0,-312.0,810.5,407.75,39.5,659.5,-194.0,-895.25,5
-678.0,-256.0,1911.25,27.5,-110.75,501.0,-62.25,-1271.0,5
1379.0,-150.5,1746.25,-49.75,-372.0,444.0,-33.25,-1341.5,5
1566.25,-229.5,1844.0,181.75,-573.0,276.25,36.0,-837.75,5
1191.75,-246.0,1624.5,172.5,-657.25,77.0,47.5,-629.0,5
370.25,-298.5,1499.5,455.0,-917.5,-36.5,29.5,-636.25,5
-127.75,-72.25,816.25,336.75,-1086.5,264.5,43.75,-634.0,5
-170.5,369.5,21.5,292.5,-1001.25,484.75,-111.25,-587.0,5
-504.25,555.25,1457.5,119.0,-952.5,391.0,-160.75,-473.5,5
-271.25,560.5,1492.75,154.25,-1020.25,342.0,-197.5,-271.75,5
89.75,334.0,701.0,190.75,-825.25,336.5,-298.5,157.0,5
316.75,-62.0,569.0,61.75,-520.0,461.25,-458.25,611.0,5
57.0,-260.25,611.25,381.25,-508.25,649.75,-727.5,680.75,5
70.75,-577.25,602.5,753.25,-388.0,679.25,-873.5,463.0,5
136.0,-840.75,-372.75,823.25,-350.25,614.75,-726.75,378.25,5
44.5,-483.5,-1142.0,689.25,-487.5,514.75,-392.25,349.25,5
-207.75,39.75,-1011.25,611.0,-653.5,247.75,-281.25,430.5,5
385.25,298.75,-842.25,589.75,-749.25,36.5,-368.75,491.75,5
354.0,453.0,-702.0,507.75,-985.5,28.0,-395.25,321.25,5
439.5,547.25,-455.25,241.75,-1009.25,122.75,-169.25,386.5,5
-17.0,450.5,1339.0,87.0,-862.5,119.5,109.5,365.5,5
-192.25,243.5,1894.0,-40.5,-762.0,-21.0,183.5,297.75,5
-172.25,41.0,1948.25,-239.5,-636.5,-100.75,197.75,-253.25,5
-337.0,-150.25,1946.25,-156.5,-550.5,-180.75,127.5,-930.5,5
-1278.5,-305.25,1908.75,44.25,-346.25,-166.25,119.25,-745.75,5
-1924.75,-288.5,1908.75,159.5,-375.0,-88.5,210.25,-439.0,5
-2070.75,17.0,1373.25,-110.25,-367.25,-19.0,329.25,-374.25,5
-704.25,399.5,114.0,-347.25,-36.0,-7.75,391.5,-145.25,5
-179.25,855.25,-712.0,-411.25,150.25,-51.25,362.5,-209.5,5
-252.25,1163.75,-1437.25,-355.75,21.25,-18.75,290.75,-404.0,5
8.25,1023.0,-1634.75,-336.0,-421.0,56.75,223.25,-366.5,5
1004.25,756.5,-1965.5,-342.0,-791.5,63.75,183.5,-156.75,5
764.25,560.75,-2261.0,-351.5,-850.0,-58.75,154.75,192.5,5
930.25,284.75,-2379.25,-551.75,-738.5,-98.25,170.25,236.25,5
758.75,120.5,-1877.75,-778.75,-545.5,10.0,194.25,218.0,5
-44.5,104.75,-1206.5,-1003.75,-422.75,166.0,143.0,-29.5,5
-488.0,96.25,-944.75,-1208.0,-396.25,225.75,130.0,-129.25,5
-450.75,189.5,-703.5,-1244.25,-275.5,141.0,101.0,112.25,5
-338.75,103.75,-455.75,-1068.75,-329.5,-8.25,-3.5,154.75,5
-905.75,-10.25,-649.5,-1071.75,-345.0,-220.25,-96.0,214.75,5
-1021.5,-62.25,-730.0,-984.5,-134.5,-455.0,-165.25,412.0,5
-1187.0,-66.75,-1080.75,-782.25,-93.5,-595.5,-181.0,426.5,5
-1044.75,16.5,-612.0,-622.5,-68.5,-660.0,-174.25,237.5,5
-1022.25,-11.75,1404.0,-439.75,-122.25,-690.75,-153.25,325.5,5
-1011.5,-188.5,1453.5,-379.75,-39.5,-567.75,-191.0,639.0,5
-953.5,-262.5,1516.0,-155.5,62.5,-453.5,-304.75,905.0,5
-991.0,-215.0,1499.0,59.0,8.25,-358.25,-316.0,646.5,5
-947.0,-259.5,796.5,187.0,27.5,-196.25,-152.75,729.75,5
-260.25,-359.5,-61.5,76.0,-105.25,-120.75,76.5,1309.75,5
640.0,-338.0,371.75,-199.5,-43.75,-180.75,294.75,596.0,5
955.75,-141.25,1747.75,301.25,222.25,-401.25,403.25,-298.0,5
1044.75,-34.5,2007.25,363.75,265.5,-582.25,328.5,-58.5,5
1022.25,154.75,1815.75,7.25,194.0,-689.0,260.25,31.25,5
984.75,397.75,1532.25,524.25,122.0,-821.25,162.25,-216.5,5
857.5,513.75,770.25,468.75,-29.5,-867.0,81.25,-120.75,5
784.25,635.0,199.25,556.0,-319.5,-722.25,84.75,-109.25,5
786.5,637.75,-408.5,581.75,-553.75,-359.25,-19.75,-330.75,5
829.75,640.75,-873.0,440.75,-555.25,-76.0,-89.75,-459.25,5
362.75,502.0,-1249.25,386.5,-198.75,124.25,-81.5,-476.5,5
-432.75,253.75,-1532.5,164.25,83.75,295.75,-103.5,-451.25,5
-1141.75,130.25,-1648.75,263.75,82.0,277.25,-53.25,-369.75,5
-1201.75,11.0,-1562.25,37.5,151.0,92.0,-44.5,-320.0,5
-1168.5,-42.25,-1449.0,4.75,281.25,-162.75,-68.5,-236.0,5
-1116.25,-165.5,-1355.25,76.0,339.0,-330.25,-17.25,-92.5,5
-1011.75,-294.0,-1253.5,-39.0,341.75,-337.25,30.0,120.75,5
-901.5,-161.5,-1153.25,-223.5,440.5,-11.75,163.25,326.25,5
-765.5,4.75,-933.25,-318.0,480.5,537.25,170.5,420.75,5
-613.75,110.75,-759.5,-324.25,267.5,835.0,-8.25,463.5,5
-597.75,100.75,-712.75,-386.75,281.0,843.0,-226.0,386.0,5
-679.75,19.75,-719.25,-300.5,245.5,722.5,-112.25,340.25,5
-787.5,-114.75,-547.5,-180.25,-13.75,494.25,230.75,369.0,5
-727.75,-302.25,813.0,-128.25,-401.75,307.0,255.5,59.0,5
-398.0,-450.25,1180.25,-34.75,-790.75,260.75,100.25,-457.75,5
-28.75,-466.5,1144.0,8.0,-452.5,352.0,-105.25,-580.0,5
320.75,-403.25,1104.75,16.25,139.0,503.0,-91.0,-484.75,5
695.25,-289.0,1064.25,80.0,484.25,664.0,91.75,-538.25,5
1056.5,39.5,1017.5,105.25,548.25,631.25,204.0,-944.5,5
1054.75,250.5,1010.25,194.75,535.75,492.75,259.25,-1039.5,5
1018.25,245.5,987.25,196.5,549.5,420.5,200.0,-833.75,5
992.75,112.75,922.0,312.5,212.0,384.5,172.0,-732.0,5
996.0,-147.25,889.5,470.75,10.75,327.25,135.5,-516.25,5
946.25,-613.75,418.0,442.0,338.0,328.25,84.75,24.0,5
885.25,-1020.5,-691.0,389.0,610.75,396.75,65.75,606.75,5
608.5,-854.75,-1185.0,402.75,517.5,327.0,36.5,504.5,5
-118.25,-589.25,-1172.0,449.75,346.0,252.75,48.75,76.25,5
-952.25,-255.0,-1060.5,253.5,225.75,286.75,50.75,91.75,5
-1291.5,90.75,-971.25,27.75,159.25,347.25,64.5,-15.25,5
-1390.5,31.25,-938.25,-19.75,142.25,379.5,86.75,-470.75,5
-1440.75,-139.5,-966.75,-53.0,289.0,416.25,108.75,-706.25,5
-1412.0,-218.0,-917.5,-95.0,481.0,355.0,106.75,-417.25,5
-1246.0,-223.5,-904.0,-95.25,542.25,173.25,75.75,-10.75,5
-776.25,-126.5,-426.25,-126.25,549.0,-5.0,67.5,-10.25,5
-168.0,-33.0,415.0,-150.0,449.75,-157.75,18.75,124.75,5
483.75,79.75,881.75,-102.75,412.0,-164.5,-35.0,825.5,5
1340.75,178.5,886.5,-51.0,347.75,-139.25,-38.25,934.25,5
1447.5,198.75,796.0,33.0,41.0,-72.75,-62.5,1066.5,5
1401.5,235.25,732.25,74.0,-266.75,18.75,-108.0,1284.25,5
1346.0,306.5,481.0,-1.5,-440.75,-21.0,-86.5,1106.25,5
1307.75,356.0,-81.5,-195.25,-422.0,-96.5,-41.25,1049.25,5
1305.25,370.75,-425.5,-186.75,-389.5,-131.75,-77.5,794.75,5
1356.5,344.0,-549.5,85.25,-420.25,-126.0,-125.75,488.25,5
897.25,283.25,-763.0,97.25,-125.75,-68.25,-220.25,222.25,5
253.75,231.75,-1055.25,48.0,185.75,76.25,-370.25,268.25,5
-179.0,132.25,-1133.5,15.5,298.25,122.0,-390.5,338.5,5
-453.25,45.75,-570.75,-126.5,132.5,106.25,-392.5,526.5,5
-789.75,-32.25,19.0,-137.0,-87.75,128.25,-315.5,660.0,5
-982.0,-107.75,-4.5,-140.75,131.25,17.5,-170.5,414.0,5
-979.75,-148.0,-24.25,-169.0,381.0,-203.25,-27.75,112.25,5
-1056.75,-191.75,-27.5,-208.5,362.25,-322.75,70.0,-43.5,5
-1278.0,-258.5,-27.25,-187.5,334.25,-301.5,65.25,59.75,5
-1464.25,-325.5,-22.0,-163.5,352.5,-379.5,80.25,-25.5,5
-1646.75,-326.5,-8.5,-164.25,228.0,-530.5,53.5,-164.0,5
-1809.75,-287.0,704.0,-122.25,175.5,-507.0,106.0,-324.0,5
-1780.25,-288.75,1195.5,-89.0,156.75,-270.5,206.75,-507.5,5
-1130.0,-260.75,1020.0,-48.0,83.25,-15.0,288.75,-374.75,5
-373.5,-217.75,702.0,-26.5,13.0,60.75,382.0,-241.0,5
214.75,-153.0,631.75,93.5,-68.75,111.75,491.5,-289.0,5
369.25,-94.25,633.75,177.25,-131.25,91.5,503.75,-225.5,5
653.25,-11.0,430.75,75.25,-144.0,25.0,462.0,-64.0,5
1035.0,52.25,62.5,27.5,-137.5,5.5,486.75,109.5,5
1318.0,107.75,-208.75,101.75,-183.75,-34.25,519.0,518.75,5
1585.75,214.0,-624.0,130.25,-246.75,-98.75,586.75,834.0,5
1745.0,262.5,-1273.0,123.0,-274.0,-207.5,600.25,873.0,5
1712.75,330.5,-1402.5,107.75,-178.0,-269.25,621.25,834.25,5
1516.0,535.5,-738.0,-81.25,48.0,-90.0,833.0,655.25,5
1015.25,597.5,-118.0,-119.0,142.75,-86.75,629.75,243.5,5
-227.5,174.5,-144.25,86.0,173.5,-180.75,407.75,395.75,5
-571.5,128.0,-81.25,-24.5,441.0,167.25,548.0,923.25,5
-208.25,136.5,-43.0,-35.5,221.0,179.5,252.25,683.75,5
-238.25,-165.5,43.75,63.75,-133.5,271.0,129.0,937.0,5
230.0,-130.0,237.25,57.75,-136.0,336.75,-88.0,968.0,5
452.75,-264.25,-411.0,156.75,-111.25,198.75,-140.75,950.0,5
483.75,-177.75,-696.25,102.0,30.25,214.0,137.75,882.75,5
134.5,-155.75,-454.25,44.0,101.25,44.0,391.5,561.0,5
-137.5,-86.75,-81.5,-123.25,184.5,30.0,590.5,497.0,5
-290.75,5.25,221.5,-201.0,174.75,-32.75,386.0,456.0,5
-464.0,-45.75,381.5,-217.75,271.25,57.75,327.5,415.25,5
-386.5,-40.25,11.5,-129.75,355.0,63.5,151.25,-146.5,5
-358.75,-187.0,-488.0,-3.0,218.25,80.0,61.5,-437.75,5
-245.75,-240.5,-806.25,-111.5,-119.25,296.75,21.75,-682.75,5
-610.25,-348.0,-416.75,91.25,-397.75,343.25,-129.0,-706.5,5
-1154.0,-288.25,419.75,171.75,-236.5,443.75,-137.5,-688.25,5
-1054.5,-189.25,1042.75,181.25,-433.75,410.75,-158.0,-646.0,5
-479.0,-44.0,1065.5,303.25,-615.5,369.0,-97.25,-649.25,5
-191.25,135.5,1097.75,550.25,-309.0,285.75,-99.0,-517.0,5
44.0,117.75,1204.75,1034.25,-115.5,164.5,-120.25,-291.0,5
191.0,73.75,1112.0,1245.75,-303.75,198.5,-146.5,-146.0,5
157.0,-38.0,630.25,1253.0,-317.25,240.5,-156.5,-165.0,5
212.75,-36.0,310.75,1055.75,-167.25,249.0,-150.25,-311.75,5
264.0,29.0,127.75,615.5,-190.75,211.5,-163.0,-420.25,5
252.75,59.0,116.75,38.5,-55.5,149.75,-176.0,-428.25,5
-43.75,67.75,259.5,-591.0,-62.75,-7.0,-204.75,-15.0,5
-266.0,64.0,84.5,-1092.25,36.25,-132.0,-183.0,743.0,5
-223.0,58.25,-284.5,-920.5,145.5,-193.5,-99.75,729.25,5
-417.75,77.5,-715.5,-962.5,241.0,-311.5,-23.25,627.0,5
-979.0,121.5,-864.75,-1207.5,344.5,-431.0,-39.0,298.25,5
-1101.0,186.0,-720.25,-745.0,364.0,-584.25,-98.5,-43.25,5
-1012.5,240.0,-387.25,-501.25,433.0,-685.0,-122.75,215.0,5
-877.5,217.5,-159.5,-444.0,248.5,-695.25,-135.5,-42.25,5
-667.25,142.5,7.75,-355.75,15.5,-596.25,-200.0,-183.5,5
-600.0,9.25,-64.5,-398.25,-180.0,-322.5,-210.5,-555.5,5
-591.25,-10.75,-457.0,-427.25,-218.25,-19.0,-241.75,-913.75,5
-635.0,-9.0,-995.25,-445.75,-182.25,229.5,-319.5,-775.5,5
-873.25,-12.5,-1183.75,-219.5,-208.5,444.25,-353.0,-786.0,5
-1257.5,75.75,-1013.25,-101.5,-273.0,642.5,-336.25,-773.0,5
-1370.5,8.75,-978.75,-44.5,-248.0,861.75,-314.5,-737.25,5
-944.75,41.5,-362.0,-25.25,-13.75,937.75,-332.5,-767.25,5
-481.5,104.0,396.25,-77.0,-113.0,816.0,-304.0,-873.5,5
-145.0,267.25,596.25,36.0,-289.5,593.5,-245.5,-888.0,5
517.0,607.75,495.0,383.25,-514.5,328.5,-191.5,-828.5,5
712.0,720.25,633.0,720.0,-745.25,115.75,-131.5,-724.0,5
581.25,591.0,1005.75,836.5,-331.25,49.75,-101.75,106.5,5
225.0,106.0,1043.75,768.5,114.0,269.25,-63.5,735.5,5
-458.5,-411.75,313.75,588.0,322.25,486.75,-3.25,891.5,5
-376.25,-988.0,-793.75,391.75,395.25,324.5,-33.75,891.5,5
757.75,-966.5,-1222.25,227.25,402.5,-60.75,-88.5,625.25,5
1387.0,-856.75,-1136.75,-50.75,366.0,-519.5,-79.5,514.25,5
1603.25,-779.75,-1000.75,-372.25,317.75,-539.0,-59.5,515.25,5
1670.5,-483.5,-915.0,-523.25,333.25,-198.0,-55.0,446.75,5
1399.25,-209.0,-760.5,-327.5,254.0,-45.5,-25.0,-4.5,5
915.75,392.0,-708.0,-37.25,210.25,13.75,-10.25,-503.75,5
402.0,740.25,-762.25,-144.75,126.25,-32.75,-59.0,-605.25,5
-371.0,743.5,-348.25,-296.0,146.5,-110.5,-110.25,-772.75,5
-473.75,597.5,128.25,-317.75,210.5,-388.0,-154.5,-735.5,5
-419.0,598.0,963.5,-357.5,195.0,-702.25,-138.0,-631.75,5
-393.75,421.75,830.5,-266.0,232.25,-944.5,-152.75,-588.75,5
172.75,143.5,732.0,50.0,287.75,-885.25,-154.75,-357.5,5
347.5,140.25,581.0,331.75,363.0,-458.0,-93.0,23.75,5
207.25,-139.0,351.25,301.0,401.25,-262.25,-62.75,234.0,5
212.25,-36.25,321.75,274.25,393.5,-348.25,-50.5,94.0,5
82.75,11.25,358.75,297.75,312.0,-630.0,-57.25,-158.0,5
-407.75,43.75,-291.25,368.5,134.0,-962.25,-59.75,-147.5,5
-750.75,7.25,-222.5,492.75,1.0,-880.5,-41.75,-20.75,5
-847.5,-439.0,617.25,516.5,93.75,-182.0,-11.25,-26.0,5
-1124.75,-756.5,956.75,467.75,123.25,-8.25,29.75,197.25,5
-585.0,-1003.75,1257.25,267.25,-26.5,12.25,64.75,366.5,5
1080.0,-573.25,1377.25,157.75,-147.5,25.5,43.75,799.5,5
1570.0,-260.0,1459.0,142.75,-109.5,-156.75,13.0,1157.75,5
1460.25,-318.75,1530.5,-17.75,12.75,15.25,4.75,1033.5,5
1369.0,-74.25,1427.5,-105.75,116.75,51.0,13.5,930.5,5
1464.0,-32.5,1172.5,-182.25,300.75,389.25,71.75,478.5,5
-362.75,112.75,739.75,-60.0,216.5,513.5,128.0,-138.5,5
-417.5,438.0,-13.0,97.75,89.5,386.25,152.0,-561.0,5
-408.25,569.25,-874.25,96.0,200.75,373.0,146.75,-532.75,5
-389.25,393.25,-665.75,195.75,359.0,340.75,82.75,-170.25,5
-177.25,56.75,-395.75,-16.75,313.25,323.5,43.25,183.5,5
128.0,92.5,-431.0,-202.25,130.0,104.25,49.75,608.25,5
396.5,176.0,-764.25,-152.75,158.0,108.25,83.75,349.0,5
390.75,207.5,-903.5,-86.5,184.5,123.0,82.0,-187.5,5
614.0,267.75,-901.75,-60.25,235.5,-110.75,-26.25,-599.5,5
572.0,260.75,-1180.25,-178.25,176.25,-270.5,-130.5,-614.5,5
468.25,285.25,-1013.0,-199.0,92.0,-219.5,-133.0,-381.0,5
-17.5,357.5,-694.0,-142.25,54.75,-223.0,-63.25,-77.25,5
-538.25,435.25,-1159.75,-287.75,-38.0,-135.75,60.5,130.25,5
-268.5,516.25,-1282.25,-783.0,-264.5,-226.0,515.25,-63.0,5
-797.5,888.5,-423.0,-940.25,-849.25,-780.75,717.25,42.0,5
-1254.0,748.25,202.75,-774.0,-860.0,-1031.25,642.0,215.75,5
-1099.25,671.75,575.0,-754.75,-680.75,-893.5,696.0,21.75,5
-990.25,771.75,620.5,-763.5,-610.25,-951.25,708.75,-338.25,5
-304.5,776.25,1154.25,-624.0,-457.0,-1138.75,708.25,-673.25,5
747.5,877.25,1893.0,-510.0,-376.75,-1105.75,702.25,-1136.0,5
58.75,759.5,2582.0,-333.75,-352.0,-1144.25,615.25,-1195.0,5
-889.75,525.5,2424.75,-153.5,-278.25,-1068.75,543.5,-1242.75,5
-1082.75,365.25,1677.75,77.5,-162.75,-795.0,300.75,-1370.75,5
-1597.5,162.25,1334.25,278.75,102.75,-585.25,154.0,-1067.25,5
-2103.0,-48.25,1208.5,370.25,184.0,-444.5,1.5,-583.25,5
-2158.75,-329.75,1078.25,249.75,159.75,-263.0,-137.75,-53.5,5
-2490.5,-475.25,848.25,58.5,110.0,-203.75,-194.75,730.5,5
-2350.25,-726.75,321.5,163.5,93.25,5.25,-232.25,1092.25,5
-2091.5,-742.0,-313.5,322.25,236.75,379.75,-213.75,848.5,5
-1938.5,-592.25,-510.25,539.25,433.25,459.5,-258.0,830.25,5
-819.5,-555.0,-411.75,788.0,505.75,563.0,-297.25,785.75,5
328.5,-437.75,-370.5,866.75,624.5,843.25,-301.5,684.25,5
2470.5,-418.5,-601.75,932.75,677.75,1292.25,-321.25,539.25,5
2605.75,-493.75,-1256.0,987.75,710.75,1319.75,-343.25,116.75,5
2692.75,-482.5,-2069.75,856.0,711.5,1312.5,-355.5,-585.25,5
2679.25,-124.25,-2260.25,644.25,595.5,1311.0,-372.0,-1210.25,5
2684.5,106.5,-2557.75,336.0,497.0,1151.75,-343.25,-907.0,5
2671.0,4.75,-2718.25,135.25,385.0,936.25,-329.0,-563.25,5
2608.75,245.5,-2609.25,142.25,245.25,888.25,-378.5,-346.75,5
2562.0,405.75,-2234.0,158.25,106.75,726.0,-400.0,-72.0,5
2473.5,297.75,-1812.75,166.25,83.5,580.5,-370.0,96.0,5
1841.75,142.0,-1414.5,338.75,126.5,637.0,-308.75,550.0,5
356.75,-179.25,-1218.75,394.25,208.25,720.75,-233.25,894.5,5
340.75,-334.25,849.75,17.0,236.75,1132.75,-158.25,1171.5,5
318.0,-433.0,872.0,-497.0,206.5,1203.75,-38.25,1460.75,5
-120.5,-564.75,687.5,-822.5,230.5,917.0,36.5,1638.0,5
-640.75,-714.0,549.25,-771.75,230.5,286.25,22.5,1617.0,5
-1347.0,-802.75,680.0,-588.5,156.25,-57.5,-12.25,1564.75,5
-1770.5,-864.25,668.75,-316.5,29.75,150.5,3.25,1602.0,5
-1837.75,-884.25,483.0,163.0,-35.5,155.5,58.25,1473.75,5
-1866.0,-881.25,571.25,575.0,9.0,464.75,79.75,1314.5,5
-1774.75,-812.25,758.25,775.0,19.5,782.25,150.25,1294.5,5
610.25,-632.25,905.0,814.75,61.75,541.0,203.25,1259.0,5
698.0,-433.75,1119.5,781.0,214.5,697.0,205.5,738.5,5
127.25,-284.25,510.0,460.75,400.5,705.75,227.25,-327.5,5
158.0,-249.25,-547.5,74.75,404.0,793.5,220.25,-980.75,5
300.25,-124.5,-1085.75,-13.5,328.5,843.25,154.0,-1116.5,5
426.5,214.75,-1234.5,-70.0,275.25,664.75,26.5,-1274.75,5
516.5,445.0,-1115.25,130.75,113.5,589.75,-97.5,-1339.75,5
544.5,548.25,-1183.0,58.5,-143.5,421.5,-54.75,-1476.25,5
205.25,605.75,-1185.25,-34.25,-320.5,308.75,42.5,-1413.0,5
-461.5,502.0,-1167.0,45.0,-257.0,122.0,-84.0,-474.75,5
-761.5,310.75,-1434.5,-106.75,181.0,107.75,-335.75,562.0,5
83.75,107.75,-1570.0,-33.5,306.75,126.0,-380.0,991.5,5
172.0,-145.0,-1306.5,-32.75,289.5,-123.25,-402.75,894.5,5
49.5,-500.25,-1069.0,20.0,176.0,-357.75,-414.5,963.25,5
-167.25,-579.5,-634.5,-285.0,-271.5,-438.75,-228.5,1245.0,5
-361.0,-216.5,-370.25,-495.25,-612.25,-541.25,-76.25,1192.25,5
-1699.5,-161.25,-494.5,-102.0,-741.5,-583.0,135.5,1102.5,5
-2558.25,-226.5,357.25,-243.75,-674.5,-607.0,58.5,954.75,5
-2359.75,-295.5,1139.5,-354.0,-449.5,-711.5,-108.75,1055.5,5
-1776.0,-119.0,1213.0,-763.75,-631.5,-838.5,-104.0,867.25,5
-1746.0,-93.75,1212.75,-913.75,-602.0,-907.5,-129.0,384.0,5
-1468.0,-24.0,1278.25,-666.25,-770.75,-915.5,113.25,126.5,5
-903.5,285.5,1494.75,-804.25,-851.0,-873.75,486.5,-600.5,5
-117.5,348.5,1507.75,-899.5,-708.0,-732.5,696.0,-808.25,5
601.25,189.75,1161.25,-572.0,-215.0,-552.25,632.5,-818.5,5
1108.0,-7.5,738.0,-328.75,36.25,-577.5,721.75,-710.5,5
1012.0,87.75,876.0,-72.5,-114.75,-716.25,673.25,-542.75,5
555.5,143.0,1268.5,398.5,-356.25,-770.5,507.0,-571.0,5
-27.0,403.25,1282.0,303.0,-799.5,-834.75,314.5,-389.5,5
-1115.5,307.5,184.0,734.0,-676.25,-620.5,26.75,-63.0,5
-1321.25,234.5,-410.75,1142.5,-371.5,-467.0,-64.75,7.75,5
-1547.5,201.0,-658.5,1311.5,-186.0,-524.0,233.75,-427.5,5
-1343.75,725.0,-291.5,448.0,-650.5,-577.25,910.75,-960.0,5
-1266.75,1056.0,-163.75,323.75,-388.0,-501.25,957.0,-1274.0,5
-1614.75,573.0,-507.5,538.75,254.5,-118.0,307.0,-1044.5,5
-2303.0,-69.0,-796.0,-321.75,672.5,62.25,-259.0,-395.5,5
-1918.0,-964.25,-1035.25,-1093.5,1094.0,239.75,-633.75,172.25,5
-1674.25,-630.25,-760.5,-1554.75,395.5,269.5,-76.0,-361.25,5
-592.75,399.0,-322.25,-1245.0,-102.0,118.0,257.75,-505.0,5
-464.75,509.75,422.5,-1729.5,-505.5,188.25,385.0,-580.25,5
-457.75,649.0,1058.5,-2103.5,-612.75,233.75,344.25,-659.75,5
-241.75,615.25,1702.0,-1869.5,-305.5,211.25,250.0,-821.75,5
389.25,868.75,1645.75,-1710.75,-55.75,26.25,130.0,-868.75,5
1232.25,841.75,1518.0,-523.25,242.75,-327.25,41.5,-702.75,5
1862.0,840.75,1361.25,755.5,207.25,-575.75,19.75,-619.75,5
2481.5,689.0,1179.25,1048.25,288.0,-721.5,-136.25,-465.75,5
2536.75,543.5,1170.75,1122.5,265.25,-772.5,-122.0,-263.75,5
1802.5,492.75,1081.25,1272.75,352.5,-176.0,-268.25,273.5,5
1336.25,395.0,584.75,1188.5,282.5,147.5,-244.75,800.0,5
1204.5,328.25,9.0,-382.5,291.25,271.25,-50.25,1153.25,5
1371.75,-32.5,-499.5,-505.25,269.0,495.75,209.75,1332.0,5
707.0,-413.75,-1105.75,-580.25,209.5,258.75,453.75,1637.5,5
-1194.5,-893.75,-1289.75,-644.0,231.5,334.75,473.75,1789.75,5
-2465.5,-1004.5,-1321.75,-173.75,222.0,350.75,263.25,1753.25,5
-2548.0,-967.75,-1412.75,389.5,198.0,249.25,214.75,1400.5,5
-2474.25,-862.0,-1489.0,340.25,218.0,286.5,456.75,949.5,5
-2285.5,-769.0,-1555.5,896.0,202.25,211.0,360.0,436.25,5
-1825.0,-791.0,-1568.25,1254.75,26.5,215.5,2.5,-342.25,5
-994.25,-608.5,-1524.75,1064.75,126.0,294.0,-314.75,-794.75,5
154.0,-445.25,-1561.75,1003.5,21.5,340.25,-491.0,-1051.25,5
888.5,-231.75,-1087.75,842.5,-26.5,354.5,-252.5,-1158.5,5
1476.5,-38.25,510.0,424.75,-45.25,386.0,-112.0,-936.5,5
2168.75,-58.25,708.5,-37.0,-16.0,351.5,-201.75,-385.25,5
2753.0,-237.0,662.0,-470.0,247.25,291.25,-606.0,46.25,5
1671.5,-515.0,593.5,-492.75,661.0,203.0,-952.0,453.75,5
2140.0,-374.25,530.75,-516.5,907.25,215.0,-1033.75,232.0,5
2370.25,-314.25,456.25,23.0,768.5,129.25,-1088.75,-22.75,5
1893.0,-224.25,154.75,416.5,728.25,-199.75,-949.5,200.0,5
1342.5,1.75,-314.5,355.25,621.75,-507.5,-851.5,432.75,5
533.5,91.25,-470.0,840.25,328.75,-577.25,-872.25,586.75,5
390.25,248.75,-444.25,1008.0,231.25,-623.0,-869.0,814.75,5
390.25,353.75,-123.0,1139.0,37.5,-716.25,-798.5,980.0,5
833.5,282.75,364.0,821.75,-40.25,-633.5,-539.0,868.25,5
997.75,205.0,884.75,680.75,-130.75,-379.25,-32.5,696.25,5
1033.5,120.0,1340.5,512.0,-194.25,-101.25,204.75,491.5,5
235.0,136.5,1386.5,482.75,-232.25,72.0,-49.0,446.0,5
-37.75,250.0,1068.25,324.75,-294.75,176.5,-188.5,379.5,5
-686.75,343.0,338.75,161.5,-263.25,172.25,13.75,383.5,5
-2138.5,438.0,106.75,254.75,-171.5,160.0,444.5,702.25,5
-2167.0,557.75,142.5,181.5,-151.25,123.5,825.25,695.25,5
-1621.0,636.75,248.5,144.0,-168.5,76.5,937.0,590.0,5
-1363.75,753.5,332.0,-49.5,-187.75,-18.75,637.5,381.0,5
-1395.75,1033.75,471.75,-193.0,-292.25,-162.25,141.75,17.25,5
-926.75,1085.75,352.75,-490.0,-402.75,-251.0,-7.0,-386.0,5
-437.0,949.5,-9.25,-576.75,-508.25,-365.5,434.5,-739.25,5
-438.75,471.5,19.0,-530.5,-431.0,-562.25,927.25,-643.75,5
-502.75,-167.75,136.5,-605.75,-354.5,-1043.75,1126.25,-641.0,5
-219.25,-255.0,647.5,-826.0,-316.0,-1494.25,1283.25,-933.75,5
353.75,-289.25,959.5,-995.75,-14.0,-1749.0,1488.25,-1018.5,5
817.25,-428.25,990.0,-979.5,255.75,-1862.25,1477.5,-1163.0,5
537.75,-567.5,1272.5,-675.0,-44.75,-1761.5,1260.5,-1466.0,5
-331.75,-481.75,1342.25,-226.0,-398.25,-1637.25,890.5,-1518.75,5
-768.5,-422.75,615.75,3.75,-294.5,-1501.75,484.25,-1321.0,5
-1042.25,-449.0,-381.5,266.5,-167.5,-1381.75,193.5,-1147.75,5
-1508.25,-369.25,-853.75,321.0,-156.25,-1321.0,-60.25,-1137.0,5
-1857.0,-209.5,-1326.25,347.25,-27.75,-1107.25,-229.0,-1138.5,5
-2021.5,-143.25,-1506.5,204.75,-21.5,-664.5,-196.5,-941.0,5
-1877.5,-185.5,-1268.0,-98.5,130.25,29.25,-157.75,-675.25,5
-1578.0,-168.0,-961.75,-260.75,111.0,646.75,-394.5,-319.5,5
-1483.5,-323.75,-898.25,-177.0,18.25,999.5,-657.5,306.75,5
-1285.5,-382.25,-499.25,-304.0,124.25,1210.5,-523.25,711.0,5
-742.5,-231.5,2.25,-396.25,141.75,1269.75,-606.5,1028.5,5
-548.25,56.0,284.5,-358.25,239.25,1325.5,-486.0,1241.75,5
132.5,414.0,539.75,-186.25,187.0,1471.0,-334.25,890.25,5
1253.0,635.75,374.25,446.0,39.0,1549.25,-428.5,715.25,5
1572.75,686.5,176.5,331.25,205.75,1496.0,-211.25,830.0,5
1584.5,773.25,-391.75,449.0,212.25,1208.75,-361.75,726.0,5
1422.5,865.25,-957.25,491.75,228.75,998.75,-575.5,915.75,5
1430.5,908.25,-1187.75,359.0,201.5,907.75,-464.25,1242.5,5
1265.25,641.25,-1377.75,466.25,240.25,965.0,-180.0,1683.0,5
1268.5,-342.25,-1275.0,360.25,532.0,1228.25,-27.0,2125.75,5
1058.75,-1056.5,-1078.0,866.5,461.0,1311.0,-390.25,1840.75,5
443.75,-1497.5,-914.75,1056.75,449.75,1194.5,-566.25,1200.0,5
-8.75,-1500.25,-702.75,1064.25,498.5,1025.25,-555.25,557.75,5
-448.5,-1555.0,-815.0,1003.0,570.0,864.75,-410.0,-108.5,5
-556.75,-1490.5,-845.25,944.0,534.0,691.25,-325.5,-258.25,5
-587.75,-1371.75,-825.5,701.25,362.75,540.5,-60.0,-405.0,5
-765.75,-1191.5,-886.0,469.0,72.0,299.75,267.75,-549.0,5
-709.0,-772.5,-1010.5,270.0,-89.0,-56.75,472.5,-612.25,5
-737.0,-530.75,-1307.75,19.25,-257.0,-346.0,595.25,-736.0,5
-822.0,-185.25,-1474.75,-327.75,-305.25,-431.5,693.25,-740.0,5
-893.25,42.25,-1225.25,-797.75,-297.5,-549.5,846.0,-685.5,5
-832.75,319.75,-1081.75,-1038.5,-202.25,-675.5,1077.0,-2.75,5
-533.25,706.75,-111.5,-1018.75,-84.5,-528.25,1153.0,429.75,5
-1047.25,929.0,1115.0,-689.0,-60.75,-440.0,1068.25,671.5,5
-641.75,1043.75,1312.5,-564.0,6.25,-562.5,1027.75,989.5,5
-102.25,1087.75,985.5,-607.75,-55.75,-776.75,1059.0,852.5,5
719.0,1031.25,905.25,-796.25,6.25,-673.25,1035.5,852.75,5
769.75,733.25,1001.75,-1115.25,95.5,-125.5,986.5,776.0,5
909.5,533.25,1258.5,-1176.25,114.75,394.0,938.5,675.75,5
951.75,402.0,1536.25,-1082.0,170.0,615.25,808.5,323.75,5
845.75,399.5,1706.25,-721.0,216.5,759.0,786.5,144.75,5
-129.0,355.25,1200.5,-260.75,138.75,962.25,852.25,-136.25,5
-1144.75,29.75,690.75,209.25,-276.25,1131.75,982.75,-312.0,5
-1291.25,-394.25,471.25,377.0,-595.5,1196.25,1194.5,-326.0,5
628.0,-172.25,331.0,348.25,-480.0,1242.5,1310.5,-455.75,5
758.25,219.25,-780.25,721.5,-254.5,1226.25,1338.5,-443.25,5
714.0,532.0,-1705.25,815.25,-24.0,1032.75,1457.25,-501.0,5
841.0,763.0,-1634.5,488.75,-1.5,758.25,1322.75,-530.25,5
895.5,534.0,-1660.75,280.75,-113.25,503.75,1314.75,-464.5,5
827.5,276.25,-1653.75,272.0,-370.75,286.25,974.75,-424.25,5
739.25,219.75,-1303.5,319.25,-179.75,58.75,1037.75,-408.25,5
-142.25,242.0,-873.75,367.0,140.75,-265.25,1047.75,-558.25,5
-1185.5,47.75,-724.0,-2.75,-37.25,-568.25,1013.75,-719.75,5
-1125.0,-151.25,-717.75,-1078.75,-279.75,-658.25,1038.75,-798.25,5
-1124.5,-350.25,313.0,-1592.25,-846.25,-778.0,808.5,-980.75,5
-1517.5,-332.25,1536.0,-1811.25,-1177.75,-1293.75,1065.5,-814.25,5
-1642.0,-188.0,1638.25,-1680.0,-1001.75,-1326.5,792.75,-809.75,5
-1628.5,52.5,1548.0,-1605.25,-814.75,-1208.0,475.75,-1081.0,5
-1309.75,416.5,1741.0,-1545.75,-561.5,-1315.5,302.25,-1260.75,5
-595.25,571.5,1692.5,-1304.75,-153.5,-1120.5,-48.75,-1265.25,5
409.25,597.0,1488.5,-853.5,530.0,-691.25,-260.75,-913.5,5
776.0,691.5,1477.0,-12.75,907.25,-188.5,-615.5,-487.75,5
926.0,658.5,1302.75,788.75,1178.75,439.0,-857.0,-244.75,5
997.5,592.5,1237.5,1515.5,960.0,555.75,-1057.5,-45.5,5
1128.0,403.5,1107.25,1790.75,839.25,808.0,-1155.5,272.5,5
1291.75,246.0,959.0,1706.25,432.5,1022.25,-1223.5,286.0,5
311.0,213.0,-556.75,1672.0,60.5,1015.75,-1441.25,132.25,5
-286.0,176.0,-1038.5,1228.75,130.75,1008.25,-1568.25,104.25,5
-711.25,196.0,-1081.0,929.5,312.5,991.25,-1488.5,124.75,5
-609.25,80.0,-1182.5,446.25,462.0,974.5,-1242.0,260.5,5
-451.5,-304.0,-1372.5,-59.25,418.25,829.0,-1132.5,367.75,5
-168.5,-463.0,-1606.75,-495.25,262.5,665.75,-1060.5,241.25,5
-99.25,-615.75,-1687.75,-462.25,-61.5,589.75,-1127.5,239.75,5
-204.25,-1040.5,-1587.5,24.75,620.5,889.5,-1385.75,552.0,5
-275.0,-1186.75,-214.25,251.75,1403.25,992.75,-1406.25,527.25,5
-301.75,-1153.25,561.5,560.0,1347.75,562.75,-1336.5,385.5,5
-425.75,-1121.5,592.0,738.0,947.25,446.25,-1361.0,334.25,5
-549.0,-1003.25,681.0,764.25,536.5,417.0,-1217.0,207.75,5
-685.75,-689.25,738.25,1011.75,316.0,292.75,-1296.75,122.5,5
-756.0,-450.25,844.5,1346.25,261.75,247.75,-1288.25,47.0,5
-856.25,-264.25,909.75,1499.75,248.0,83.75,-1308.25,-57.5,5
-908.75,-212.75,971.75,1620.75,-76.25,86.0,-1255.5,-112.75,5
-940.0,-127.5,1000.0,1389.25,-597.25,69.75,-894.75,-128.25,5
-1006.0,-161.5,-834.25,1183.0,-925.0,172.5,-875.25,-101.0,5
-1049.25,-129.5,-968.0,749.25,-1130.0,321.5,-1050.25,-181.0,5
-1084.75,-22.5,-939.25,391.25,-1290.5,393.75,-891.75,-191.5,5
-241.5,34.25,-972.0,186.0,-1304.0,563.75,-368.75,-181.75,5
869.25,-28.0,-1020.5,-137.5,-1409.5,589.0,-193.25,-154.0,5
840.25,-198.25,-1020.0,-561.25,-1775.5,248.5,-458.5,-214.0,5
831.75,-78.25,-993.25,-824.0,-2297.0,-76.5,-613.75,-252.75,5
824.5,181.25,-948.25,-629.5,-2558.5,-310.5,-635.75,-269.5,5
809.5,369.75,-915.25,-458.5,-2603.5,-599.75,-396.0,-310.5,5
845.0,357.5,-61.5,-215.75,-1685.75,-684.25,-214.75,-289.75,5
783.75,427.75,1106.5,-250.5,-353.25,-704.0,-5.0,-311.75,5
715.0,530.5,1133.0,-280.0,415.25,-744.5,78.0,-299.75,5
742.5,694.5,1163.0,-260.75,516.5,-956.25,213.25,-288.0,5
726.75,766.25,1181.5,-149.75,226.5,-1119.0,399.25,-211.5,5
716.75,502.0,-173.5,-1.25,205.75,-1186.5,499.25,-166.75,5
721.5,262.0,-897.75,-19.5,547.25,-1153.75,541.5,-233.5,5
831.75,30.25,-940.75,150.75,649.75,-1069.25,619.75,-227.25,5
309.75,-104.5,-975.75,125.0,455.0,-954.0,799.25,-194.5,5
-985.75,-282.5,-1010.25,109.5,251.5,-507.75,968.0,-129.75,5
-1061.25,-415.0,-811.25,34.5,185.0,206.25,894.25,-71.5,5
-1121.25,-436.0,509.0,-122.0,317.75,852.25,682.25,-64.25,5
-1172.25,-391.25,1082.75,-240.75,567.5,960.0,531.25,-51.0,5
-1205.75,-139.0,1099.25,-342.0,520.25,1013.5,528.75,-90.0,5
-346.75,160.25,1132.0,-304.75,397.5,1002.75,546.25,-52.75,5
873.25,350.5,1134.5,-161.5,349.25,976.5,556.5,-6.75,5
935.0,380.0,1110.5,-42.0,647.25,482.75,654.75,40.0,5
951.0,327.5,803.0,-25.5,642.5,-90.75,757.5,176.5,5
967.75,287.25,550.75,0.5,288.5,-507.75,944.75,361.5,5
988.75,195.0,-50.0,-140.25,229.75,-911.75,1206.5,473.5,5
-117.0,105.0,-803.25,-289.75,254.5,-1135.25,1282.25,478.0,5
-864.0,30.25,-1061.25,-387.5,580.0,-1260.5,1193.0,448.0,5
-609.25,-97.25,-1103.0,-378.25,424.5,-1231.0,1130.75,372.0,5
448.0,-100.25,-1100.25,-264.75,-284.5,-1239.75,1065.5,201.5,5
895.0,-80.75,-1064.5,-185.5,-452.25,-1250.75,1019.0,44.5,5
872.0,-136.25,-1014.75,-113.5,-132.25,-1272.75,1014.25,-73.25,5
822.0,-192.0,-980.5,-55.75,-175.0,-892.5,971.75,-84.0,5
329.25,-139.25,-953.75,-148.75,-45.5,-411.75,959.25,7.0,5
-1157.5,43.75,-951.25,-356.25,496.0,-247.5,928.75,8.5,5
-1096.75,178.5,-954.25,-598.5,866.0,40.5,926.5,59.0,5
-961.25,138.0,-956.0,-863.5,1391.0,381.25,870.0,213.75,5
-874.25,18.5,-856.0,-797.25,1463.25,644.75,728.5,247.25,5
-832.5,51.5,375.25,-512.25,1417.5,860.5,716.0,214.25,5
-904.75,142.0,1026.75,-118.5,1350.25,1061.25,826.5,221.25,5
-1012.0,195.75,1049.75,82.75,637.25,1184.5,758.25,291.5,5
-1004.75,263.0,1079.0,71.75,-335.0,1066.5,523.75,379.75,5
-1033.0,278.75,1079.25,94.75,-256.75,994.0,344.5,441.25,5
-943.25,259.25,1063.75,-51.5,-407.25,815.25,243.0,469.25,5
-1008.5,316.0,1081.25,-232.75,-743.5,553.25,158.0,350.25,5
-749.75,456.25,1158.0,-291.25,-424.5,164.5,212.25,63.0,5
-436.0,474.75,1276.0,-214.0,44.75,-244.0,173.0,-183.25,5
-21.25,81.0,1190.5,202.5,684.0,-277.5,-194.25,-46.0,5
504.5,-484.5,920.75,593.5,685.0,-135.0,-171.25,-220.0,5
581.75,-221.0,718.75,113.0,175.75,88.25,123.25,-369.0,5
483.75,-108.75,172.75,252.75,131.75,498.0,-47.0,404.75,5
510.25,-819.75,-270.75,736.75,-369.75,534.5,-232.75,759.25,5
650.25,-790.5,-258.5,455.75,-450.0,203.0,-185.0,858.5,5
853.25,-704.0,-470.0,435.25,13.0,-39.75,100.5,1307.0,5
866.25,-647.75,-428.25,291.25,548.5,-256.25,377.5,1332.75,5
121.0,-540.5,-358.75,330.25,850.25,-466.5,363.75,1004.5,5
-328.75,-707.5,-411.25,421.5,274.5,-401.5,468.75,100.0,5
-370.75,-406.5,-151.0,17.0,5.5,-353.25,501.25,-470.25,5
-439.0,-327.25,-210.25,-12.75,-59.75,-213.5,466.5,-754.25,5
-344.25,-166.25,-590.0,-124.5,-128.75,-81.25,538.5,-901.5,5
-132.5,-45.25,-636.75,-10.25,157.5,232.25,569.25,-942.25,5
76.75,119.0,-528.75,-137.5,461.0,507.75,470.25,-520.5,5
181.0,288.25,-416.0,-252.0,724.5,719.5,242.5,-224.75,5
2.5,307.75,-253.5,-340.5,212.0,876.5,123.5,-155.25,5
-133.0,294.75,-163.5,-465.5,340.75,1097.0,155.75,91.5,5
-186.0,236.5,-157.25,-528.0,305.25,1115.5,379.25,-122.25,5
-406.75,587.25,-604.0,-756.25,128.5,968.0,605.75,-72.25,5
-436.5,588.75,-1366.75,-418.25,471.0,974.25,661.0,74.25,5
-371.25,238.75,-1353.25,-55.25,832.0,803.5,877.5,163.75,5
-382.0,265.25,-158.25,-308.5,-93.75,598.5,974.75,105.5,5
-213.5,182.25,-198.0,-339.5,-3.0,536.25,972.5,154.0,5
-49.0,2.75,36.75,-310.0,-28.75,381.5,960.0,155.0,5
-20.5,33.5,483.75,-409.25,91.25,243.5,665.75,113.5,5
101.25,-76.75,415.0,-256.5,870.0,93.5,492.5,173.0,5
234.25,-160.25,600.75,-68.5,2006.0,-110.5,217.25,157.0,5
399.25,-221.75,579.25,323.25,2026.5,-347.75,63.75,252.25,5
536.25,-157.25,796.5,522.5,1294.5,-645.0,222.25,161.0,5
548.75,29.75,993.5,436.25,826.0,-866.5,319.75,208.75,5
544.75,50.0,1078.0,260.0,278.75,-987.5,317.25,353.25,5
556.75,40.5,543.5,155.0,-222.75,-1119.25,265.5,382.75,5
592.0,57.25,-268.5,2.75,-291.5,-1203.0,265.0,169.25,5
503.25,110.0,-677.5,-182.75,792.75,-1150.5,380.25,-205.5,5
342.0,131.25,-941.75,-251.25,1385.0,-1177.75,302.75,-335.75,5
76.0,192.0,-935.5,-453.0,1813.0,-1320.75,123.25,-250.0,5
-287.25,191.75,-341.5,-681.5,1944.0,-1269.0,74.0,-480.0,5
-465.0,257.5,-7.75,-881.0,2003.25,-1140.0,-37.0,-654.75,5
-657.0,321.0,-134.25,-842.25,1167.0,-1030.0,-147.5,-497.0,5
-793.75,70.0,-654.0,-545.75,-451.25,-906.0,-326.25,-479.75,5
-604.5,-244.25,-1061.5,-236.5,-979.75,-776.25,-475.75,-286.25,5
-421.5,-346.5,-1343.0,-193.5,-1369.75,-617.75,-367.25,-456.0,5
-257.75,-186.75,-1180.75,-243.0,-948.0,-387.75,-339.5,-542.5,5
258.25,115.0,-1235.75,-252.25,-783.5,-119.5,-383.75,40.25,5
739.25,333.0,-991.5,-357.75,-1046.75,102.75,-376.25,202.25,5
991.25,330.0,-672.75,-408.5,-655.0,310.25,-349.75,272.5,5
1071.5,266.25,-174.75,-381.75,353.5,626.5,-367.0,380.75,5
978.25,131.75,437.75,-205.5,819.0,1007.5,-384.25,348.75,5
897.0,111.5,944.5,-162.0,592.25,1309.75,-309.0,400.0,5
697.5,103.0,1356.25,-118.5,335.25,1386.75,-257.75,411.5,5
380.0,-67.25,1283.75,126.5,24.5,1262.0,-294.5,486.25,5
-177.25,-178.75,1043.25,455.25,-39.5,987.75,-388.5,533.0,5
-251.5,-190.0,951.5,438.75,-405.5,598.0,-302.25,304.5,5
-135.75,286.5,1450.0,-167.5,-1205.0,-38.75,195.0,-243.0,5
-632.75,668.0,1559.75,-191.75,-1512.0,-602.5,261.0,-290.75,5
-551.0,664.75,1276.5,-133.0,-1627.0,-516.25,55.5,-189.75,5
-540.75,547.5,717.25,-230.0,-1515.0,-454.0,-1.75,-269.75,5
-636.0,402.0,-28.25,-145.75,-1196.0,-712.0,-200.0,-238.75,5
-801.75,194.0,-529.0,-74.5,-543.25,-541.75,-435.25,-181.5,5
-850.5,105.0,-766.75,-115.5,-16.5,-403.75,-616.5,-106.25,5
-808.5,-112.5,-821.75,-80.25,132.25,-213.75,-868.5,1.5,5
-797.5,-240.0,-989.75,-9.75,180.5,56.75,-738.75,22.25,5
-706.0,-308.75,-1005.0,167.75,69.25,-121.5,-714.5,156.5,5
-554.75,-333.5,-586.25,65.25,-86.75,-465.0,-967.25,386.0,5
-221.0,-379.75,-61.0,14.5,-123.75,-638.25,-1385.5,990.75,5
582.75,-434.75,-377.5,286.75,-286.0,-751.5,-1869.0,1653.75,5
1068.5,-574.5,-711.0,1032.5,-371.5,-838.5,-2438.0,2149.25,5
913.5,-736.25,-705.25,1123.75,429.5,-1076.25,-2388.75,2136.25,5
828.5,-647.5,-768.25,954.75,869.5,-1370.25,-1962.25,1932.75,5
756.75,-601.25,-841.0,932.0,555.0,-1507.0,-1791.75,1290.5,5
373.25,-619.75,-700.5,859.75,148.0,-1646.0,-1602.25,266.25,5
270.5,-545.0,-334.0,707.25,-169.75,-1807.25,-1355.5,-166.75,5
155.0,-567.75,-43.0,516.0,-199.25,-1808.0,-1160.0,-231.5,5
188.5,-443.5,219.5,418.5,-75.0,-1904.75,-791.25,-379.25,5
228.5,-373.25,128.5,399.75,116.5,-1884.25,-430.5,-382.0,5
293.5,-273.25,-27.0,257.5,277.75,-1990.25,56.75,-545.5,5
413.75,-179.5,-12.5,208.0,9.25,-1115.0,517.5,151.5,5
470.5,2.25,-447.75,34.5,-296.75,-164.75,785.0,122.25,5
548.25,187.75,-655.75,-91.0,-590.5,-72.5,1090.0,212.5,5
698.5,223.5,-878.75,-195.25,-839.0,-44.75,1398.5,-83.25,5
994.25,278.75,-1021.0,-357.25,-1105.5,65.75,1672.0,-237.25,5
831.0,365.5,-950.5,-536.0,-1224.5,178.75,1617.5,-4.0,5
342.0,491.25,-1054.25,-618.75,-1095.25,161.75,1431.0,272.0,5
295.5,465.75,-711.25,-501.25,-861.0,198.5,1283.75,310.5,5
143.5,364.0,-615.0,-321.0,-600.75,328.75,1019.25,234.5,5
120.25,230.0,-351.25,-271.5,-605.75,382.0,684.75,272.5,5
261.5,192.0,184.75,-281.5,-674.5,447.0,910.75,135.75,5
64.5,290.5,596.25,-320.0,-798.75,705.5,1396.75,153.75,5
-386.5,541.5,898.25,-510.0,-991.75,836.25,1802.5,-54.0,5
-821.5,569.5,879.0,-355.75,-749.5,1020.25,2101.0,141.75,5
-848.75,37.75,618.5,208.5,-333.0,1260.25,1702.25,446.25,5
-940.25,-333.0,463.5,583.0,-558.0,1390.0,1123.25,480.5,5
-943.25,-357.25,486.5,832.0,-851.25,1581.0,473.5,285.25,5
-804.75,-576.5,98.5,947.25,-1113.5,1662.75,-23.25,37.75,5
-910.5,-453.0,-406.5,795.5,-1523.25,1565.25,-207.75,190.75,5
-932.75,-410.75,-743.5,827.25,-1371.5,1331.5,-717.75,268.75,5
-847.25,-516.25,-548.0,772.0,-1473.0,1228.75,-864.25,-127.0,5
-896.25,-377.0,-55.5,692.0,-1296.25,1315.75,-363.25,-27.25,5
-857.75,-250.25,211.5,623.25,-1166.75,1345.75,170.0,522.75,5
-687.75,-72.25,344.5,328.25,-1236.0,1208.25,283.75,248.0,5
-511.0,-81.0,370.25,180.5,-1335.0,892.5,250.75,192.5,5
-379.75,-55.5,358.25,6.5,-1114.0,752.0,708.75,402.5,5
-336.25,-47.25,306.25,-130.5,-565.0,1025.75,708.75,477.25,5
-288.75,60.25,100.5,-349.75,-72.25,1494.5,579.25,617.5,5
-263.75,141.5,35.5,-426.75,346.0,1678.25,470.25,383.25,5
-158.5,194.5,219.75,-359.25,332.75,1730.0,103.25,514.75,5
-53.75,237.25,545.75,-333.0,439.5,1903.75,-289.5,864.25,5
162.0,137.5,877.5,-338.25,545.75,1946.75,-708.75,992.5,5
354.25,128.25,567.5,-357.5,608.75,1904.5,-836.0,602.75,5
415.25,108.75,134.75,-378.0,576.25,1759.5,-712.0,144.75,5
514.0,211.75,44.75,-478.0,529.5,1584.75,-275.75,-94.25,5
323.5,262.0,-154.75,-246.5,943.75,1750.25,-515.5,68.5,5
387.25,-411.25,-856.25,508.25,1605.0,2280.0,-1010.25,616.5,5
341.0,-521.25,-1062.75,470.5,1667.75,2052.0,-549.75,257.0,5
-214.75,-238.5,-1132.0,216.25,1510.25,1698.5,-444.0,266.5,5
125.75,-344.75,-1384.5,374.5,1578.0,1468.0,-421.25,347.25,5
716.25,-99.25,-369.75,-109.25,1187.25,982.75,-280.25,343.0,5
1301.25,79.75,218.0,-162.5,1204.75,1119.5,-388.25,433.25,5
1132.75,184.5,481.25,-316.0,1028.5,-159.0,-269.0,262.0,5
1204.75,-23.0,216.5,84.0,1148.25,-751.0,-445.0,533.5,5
1531.0,-286.75,-128.0,187.25,669.25,-769.0,-312.75,394.0,5
1190.5,-10.25,291.5,31.25,165.0,-841.75,-304.25,417.75,5
523.5,-176.5,448.5,190.75,-120.25,-682.75,-442.0,151.25,5
-126.0,16.25,701.0,-52.5,-693.5,-553.75,-682.75,31.75,5
-361.5,-19.25,760.0,-37.0,-760.75,-672.25,-618.0,88.75,5
-697.5,214.5,780.0,-378.75,-921.75,-932.5,191.25,8.5,5
-1002.0,172.25,511.75,-74.5,-627.0,-874.0,509.75,42.25,5
-983.75,78.5,204.75,-10.0,-1008.0,-995.25,521.0,-259.25,5
-1066.75,285.0,-114.0,-140.0,-1037.5,-211.25,173.25,-353.75,5
-1066.5,92.5,-300.75,-65.5,-890.75,1164.25,-437.25,-296.25,5
-1275.25,189.5,-160.25,-236.75,-880.0,1077.25,-1189.5,-152.5,5
-1193.5,148.75,-126.75,-152.0,-792.0,1103.25,-1275.0,-231.25,5
-936.5,268.25,-127.25,-320.0,-1144.75,816.25,-936.0,-614.5,5
-637.25,347.75,-274.5,-405.0,-1553.25,115.0,-551.0,-1076.0,5
-335.75,303.0,-292.5,-470.75,-2010.75,-527.0,272.75,-1261.0,5
48.0,340.0,-245.0,-481.0,-1875.25,-1017.75,326.75,-1305.0,5
192.0,324.75,-66.75,-375.75,-1695.25,-1240.5,108.5,-1251.5,5
193.25,312.5,-83.0,-319.25,-1616.0,-1007.5,-23.5,-1190.25,5
137.0,344.5,-70.5,-426.5,-1504.75,-267.5,-293.25,-1321.75,5
-146.5,294.25,24.75,-404.25,-1052.25,370.25,-29.0,-1062.0,5
-294.25,160.5,137.75,-276.5,1093.0,795.25,156.0,-817.0,5
-269.5,154.75,342.25,-200.5,1190.5,1019.5,159.25,-684.0,5
-109.0,116.75,376.75,-45.75,995.75,659.0,392.75,-762.75,5
-273.75,259.25,546.5,84.75,870.5,179.25,449.5,-632.5,5
-624.25,72.25,456.25,426.5,1259.25,-52.25,185.5,-446.5,5
-747.5,-156.75,339.0,444.5,1094.25,-6.25,451.0,-508.5,5
-500.75,52.0,315.5,366.75,1057.75,92.0,568.75,-426.0,5
-146.25,-9.5,177.0,434.25,1184.25,93.5,363.0,-552.5,5
-156.0,78.75,238.75,300.0,836.75,-174.0,182.75,-577.75,5
11.0,-379.0,-143.5,927.25,1411.0,-282.0,-514.5,-110.25,5
452.5,-840.25,-642.75,1003.25,1303.5,-414.75,-310.75,-172.25,5
356.25,-626.0,-318.0,547.0,1031.25,-835.75,129.5,-341.25,5
160.0,-417.25,-497.75,513.75,1353.5,-576.25,218.75,-210.5,5
236.75,-393.0,-645.5,285.25,1104.25,-561.25,646.25,-584.5,5
-151.5,135.0,-281.5,-168.75,1039.0,-650.5,300.75,-448.25,5
-196.25,-243.75,-549.75,375.75,1734.5,-179.5,-400.25,206.0,5
217.25,-589.75,-849.25,490.5,1179.25,67.75,-384.75,171.5,5
168.75,-548.25,-252.25,305.25,746.0,-210.75,234.5,22.5,5
-77.0,-326.5,-34.5,259.0,859.0,-293.25,484.0,249.0,5
-84.0,-405.75,-152.75,88.25,263.0,-618.75,652.25,139.75,5
-340.25,36.0,47.75,-310.0,-230.5,-848.0,305.5,173.75,5
-376.0,-8.25,102.25,-244.75,-411.5,-770.0,-942.25,179.75,5
-240.25,128.25,418.75,-334.0,-580.75,-862.0,-982.5,213.0,5
-102.5,66.25,469.75,-228.75,-613.5,-786.75,-740.5,284.75,5
-9.25,253.0,652.5,-369.25,-719.75,-724.75,-154.5,334.5,5
127.0,292.25,676.75,-322.5,-663.75,-430.25,447.0,389.75,5
318.75,380.75,758.25,-458.25,-814.0,-462.75,757.25,183.5,5
401.25,512.5,747.75,-464.75,-700.25,-670.25,1051.25,26.5,5
366.25,449.75,382.0,-408.5,-812.5,-867.75,1501.5,-239.0,5
236.5,507.5,-20.75,-457.0,-849.5,-978.5,1444.5,-398.5,5
36.5,408.75,-291.75,-529.5,-748.75,-854.75,1306.0,-550.0,5
-411.75,521.0,-207.25,-596.5,-726.75,-658.75,973.75,-644.75,5
-865.0,545.0,-270.0,-600.5,-870.0,-415.25,750.5,-708.5,5
-581.0,569.25,-37.75,-597.0,-936.0,-268.75,402.75,-709.25,5
300.5,364.0,-54.5,-320.0,-418.25,-146.5,-200.25,-670.0,5
787.75,218.75,-56.25,-250.25,-118.75,-213.75,-660.25,-984.5,5
937.0,328.25,541.75,-236.5,-78.0,-230.75,-624.0,-1203.5,5
1154.75,-59.25,361.5,393.5,715.5,367.5,-970.5,-743.25,5
1445.75,-779.75,-212.25,922.0,792.0,603.5,-1026.5,-663.0,5
1078.25,-455.75,-258.0,379.5,521.5,-9.5,-294.5,-913.25,5
660.0,-348.0,-111.0,254.5,705.0,-472.75,-419.5,-716.75,5
656.25,-439.75,223.25,36.5,193.75,-1254.0,-89.0,-825.5,5
209.0,-51.5,419.75,-243.75,-35.25,-1650.25,-116.0,-800.5,5
-234.5,-153.75,577.5,-293.5,-81.0,-1506.75,-119.25,-916.75,5
-777.25,45.0,487.25,-567.5,-356.75,-1211.25,-88.0,-1018.75,5
-712.75,50.0,58.0,-432.0,-284.75,-959.25,-202.0,-1046.25,5
-253.0,167.5,-157.25,-571.75,-548.75,-980.5,-2.25,-1180.5,5
171.75,280.5,-213.5,-513.75,-460.25,-604.75,-7.0,-1128.5,5
378.75,317.5,-38.75,-449.25,-550.75,-329.25,88.25,-1234.5,5
351.75,387.0,-54.0,-371.25,-445.0,-387.75,134.0,-1257.25,5
261.25,347.25,-185.5,-351.0,-411.5,-808.25,334.0,-1358.5,5
146.75,479.5,-473.75,-474.5,-552.0,-929.75,401.25,-1403.25,5
-3.75,502.25,-610.5,-463.25,-886.5,-690.25,419.5,-1455.0,5
-288.5,535.5,-388.5,-521.25,-1125.75,-140.25,338.5,-1499.25,5
-604.5,460.75,-145.75,-560.75,-1442.25,315.75,302.75,-1538.0,5
-711.0,385.25,204.5,-528.5,-1865.75,685.25,334.5,-1598.75,5
-712.5,357.5,623.0,-383.5,-1994.25,711.25,398.5,-1585.25,5
-983.5,370.75,944.25,-288.5,-1876.25,751.0,669.5,-1606.0,5
-1134.25,358.25,962.0,-251.0,-1636.75,817.25,726.25,-1527.0,5
-640.0,332.25,434.25,-263.25,-1529.0,852.25,817.0,-1451.0,5
-68.25,322.25,138.25,-300.5,-1324.75,983.25,937.0,-1380.0,5
212.0,307.75,463.0,-279.75,-1316.25,1022.25,963.75,-1298.25,5
548.75,272.75,321.25,-242.5,-1342.5,969.5,606.0,-1226.25,5
718.0,243.25,-175.0,-134.25,-1220.25,894.75,80.75,-1086.75,5
695.5,214.75,-277.5,-84.75,-1257.5,830.5,-291.25,-925.75,5
540.75,-5.75,-5.75,-23.0,-1020.5,852.75,-531.0,-679.5,5
500.25,-419.25,-54.0,121.5,-662.5,731.0,-520.0,-394.75,5
429.0,-870.25,-652.75,405.75,-404.0,714.75,-427.25,-220.25,5
260.25,-947.0,-1094.25,558.25,-507.5,616.75,-171.75,1566.5,5
-12.5,-618.25,-890.25,451.0,-934.25,395.25,91.0,1474.5,5
-390.0,-191.5,-354.25,297.75,-1391.0,201.0,192.5,1269.0,5
-604.25,212.5,-78.25,195.25,-1675.75,-51.25,241.5,1151.0,5
-713.5,443.5,252.5,115.75,-1835.75,-380.25,335.25,1122.0,5
-795.5,486.75,412.5,46.75,-1666.25,-623.0,337.25,1218.75,5
-837.75,283.0,334.5,-4.25,-1286.75,-689.25,194.75,1342.25,5
-697.0,112.25,425.0,-11.75,-1123.75,-704.25,185.25,1394.25,5
-633.75,-35.75,462.0,-6.25,-926.0,-691.25,61.0,1448.75,5
-569.0,-184.25,333.0,-48.5,-677.75,-701.0,-69.25,1474.0,5
-469.25,-305.75,199.25,16.75,-460.5,-721.75,-160.25,1501.25,5
-394.75,-438.75,236.5,95.25,-414.25,-724.75,-197.75,1464.25,5
-338.25,-446.0,234.25,226.0,-633.75,-791.75,14.75,1368.75,5
-297.5,-412.0,100.25,419.0,-888.0,-308.75,179.5,1284.25,5
-233.25,-356.75,-57.75,510.5,-879.25,373.25,-36.5,1250.75,5
-188.5,-323.25,-255.25,549.0,-598.25,1106.0,-383.0,1316.25,5
-192.5,-296.25,-217.5,499.75,-232.25,1138.0,-431.25,1344.5,5
-134.75,-260.0,-95.25,493.25,180.5,1167.5,-244.25,1341.25,5
210.5,-263.25,-502.75,531.75,579.25,1172.25,-151.0,1316.0,5
526.0,-284.25,-887.25,532.75,680.5,1198.25,-146.25,1288.25,5
767.0,-307.75,-552.25,484.75,757.25,1201.75,-333.25,1271.5,5
841.75,-335.25,-75.75,471.25,790.75,1175.75,-1226.5,1221.75,5
720.75,-352.5,102.0,558.5,742.0,1163.75,-1766.25,1138.75,5
777.25,-416.0,209.5,652.0,730.0,1208.5,-1312.75,1231.75,5
927.0,-616.0,333.75,733.0,1196.25,1414.25,-1109.0,1660.5,5
1064.5,-670.5,152.0,809.75,1917.5,1767.75,-1424.5,1324.75,5
1009.25,-617.25,-73.5,791.5,2200.25,1748.5,-1407.75,-470.5,5
732.75,-567.5,-236.5,682.5,2134.75,1609.0,-1307.5,-383.25,5
692.75,-522.75,-585.5,530.5,2105.25,1520.75,-1408.0,-481.75,5
743.5,-457.75,-919.0,395.0,1910.0,1321.75,-1120.25,-622.25,5
608.5,-393.0,-968.75,302.5,1750.25,1198.5,-708.75,-727.75,5
178.0,-233.25,-955.25,256.75,1573.75,1094.75,-563.5,-903.0,5
9.75,-144.75,-845.75,72.75,1669.25,953.0,-346.0,-1002.0,5
-145.0,-35.75,-796.75,-53.0,1747.5,891.75,-172.0,-1136.75,5
-351.25,19.5,-566.25,-110.0,1785.75,854.5,-129.5,-1156.25,5
-436.75,3.5,-206.5,-123.5,1766.25,370.75,-0.5,-1232.0,5
-716.75,-22.5,-2.0,-104.75,1564.25,-416.25,240.0,-1215.75,5
-865.0,-44.75,292.0,-138.0,1355.25,-1155.75,514.5,-1218.0,5
-873.0,-5.25,369.75,-213.75,891.0,-1151.5,674.5,-1294.25,5
-833.0,95.25,307.5,-290.5,451.25,-1166.25,643.5,-1329.0,5
-782.0,210.25,373.75,-357.5,-84.0,-1144.75,633.5,-1374.5,5
-535.25,232.25,424.25,-459.75,-547.25,-1132.25,648.5,-1390.75,5
-309.25,282.5,244.25,-549.5,-1106.75,-1102.5,584.25,-1400.75,5
-52.25,262.5,46.5,-576.25,-1209.25,-1124.5,674.0,-1368.25,5
218.0,217.75,-43.25,-537.25,-1116.75,-1140.75,903.0,-1363.0,5
328.0,228.75,-358.75,-458.0,-1273.5,-1158.75,808.25,-604.75,5
545.25,201.5,-845.25,-333.75,-1285.75,-1147.75,543.75,249.75,5
443.0,185.25,-844.25,-267.0,-794.5,-1068.0,448.75,694.25,5
167.25,158.25,-276.5,-287.5,-161.25,-1045.25,295.0,709.5,5
34.75,163.0,-4.5,-280.0,129.0,-1091.75,117.5,736.5,5
-243.25,199.0,135.75,-249.5,282.0,-1170.0,215.5,744.75,5
-265.75,223.5,166.25,-215.25,24.0,-1196.25,422.75,690.25,5
160.5,208.5,193.25,-310.5,-349.0,-1195.75,683.25,700.5,5
427.0,187.5,261.5,-412.5,-624.5,-1195.5,964.0,800.25,5
599.75,190.5,54.25,-328.0,-940.0,-1193.75,1011.0,870.25,5
760.0,149.75,-110.75,-238.75,-1009.25,-1191.5,822.0,938.75,5
768.25,103.5,-124.25,-240.5,-812.25,-1172.25,702.25,1000.75,5
606.0,72.75,-22.5,-237.75,-606.25,-1152.75,637.25,1070.75,5
103.5,42.0,2.25,-195.5,-643.25,-1150.0,469.75,1064.0,5
-241.25,48.25,38.5,-116.75,-690.0,-1164.0,713.75,873.25,5
-430.5,75.25,43.0,-153.5,-840.75,-1192.75,798.5,324.25,5
-418.0,96.0,92.25,-220.5,-683.0,-1244.75,598.5,-210.75,5
-334.25,112.75,161.0,-245.0,-575.5,-1181.5,414.0,-767.25,5
-337.25,125.25,201.75,-214.5,-409.25,-913.0,204.0,-890.25,5
-307.5,141.5,359.5,-97.0,81.5,-709.0,-110.5,-879.5,5
-269.25,138.5,456.0,-21.25,374.0,-612.5,-740.0,-910.0,5
-124.5,150.75,537.75,36.75,265.25,-694.75,-586.0,-942.25,5
-93.0,132.75,624.0,27.75,174.25,-979.0,-727.75,-986.75,5
-53.5,73.75,651.0,-7.0,36.25,-1204.0,-931.5,-1011.25,5
-22.0,75.75,456.75,-84.0,70.25,-1170.0,-1069.0,-1031.75,5
-15.75,100.5,165.5,-112.5,162.25,-1141.5,-877.25,-1031.5,5
-99.0,100.75,50.75,-100.75,275.75,-1111.25,-277.5,-989.25,5
-292.5,42.75,18.25,-72.25,405.5,-1053.25,67.5,-972.0,5
-431.0,-1.0,-88.75,-10.75,465.25,-829.5,20.0,-944.0,5
-430.0,-1.0,-284.0,-96.5,621.5,-732.5,-125.75,-928.0,5
-107.75,-6.5,-456.25,-39.25,855.5,-675.5,-206.0,-910.5,5
348.0,-18.25,-533.25,194.25,962.0,-498.75,-73.5,-912.0,5
620.5,-30.75,-283.25,237.0,777.75,-193.25,0.75,-901.5,5
747.25,-55.25,-212.25,137.25,561.75,97.75,45.0,-895.0,5
619.5,-104.75,-712.5,134.75,517.25,322.75,17.5,-880.5,5
369.0,-125.5,-808.0,41.5,584.5,539.0,26.0,-894.75,5
274.0,-66.0,-519.0,-153.25,699.25,673.75,304.0,-952.5,5
110.75,10.75,-199.0,-293.25,839.75,579.75,408.5,-975.75,5
0.5,16.5,169.5,-352.0,1054.5,451.0,316.5,-995.0,5
-174.75,-8.5,478.25,-91.0,1164.0,452.5,209.75,-1023.75,5
-689.5,0.0,832.5,67.0,1179.75,539.25,11.0,-722.25,5
-843.0,-34.5,914.25,-71.75,1320.5,688.5,132.5,-205.75,5
-439.5,-83.5,921.0,-86.75,1307.5,811.5,188.0,334.25,5
-135.75,-18.25,856.25,63.5,1223.25,925.25,175.0,830.5,5
90.0,45.25,677.0,44.25,1368.0,1037.0,346.25,953.25,5
249.25,85.25,262.5,-78.0,1295.5,1186.75,622.0,949.75,5
326.25,119.0,-222.0,-91.25,1164.25,1166.5,808.75,953.75,5
314.0,130.0,-329.5,-93.5,1329.5,1110.0,651.0,951.75,5
154.0,126.0,-372.0,104.25,1428.5,1155.75,507.0,953.0,5
61.75,77.0,-176.25,274.75,1284.25,1168.75,455.0,961.25,5
66.0,64.5,81.25,328.0,1190.75,807.5,313.0,983.75,5
16.25,80.0,152.0,321.0,1269.0,565.75,-80.25,1038.5,5
-68.75,52.0,197.0,316.25,1248.5,420.5,-528.75,1094.75,5
11.0,-35.25,14.0,406.5,1115.75,319.25,-660.25,1091.5,5
1.5,-84.75,-7.75,333.75,985.75,218.75,-278.5,1067.75,5
-193.75,-41.5,193.25,115.5,830.0,47.5,138.25,1047.0,5
-340.0,-63.75,166.5,-69.5,1050.0,150.0,275.25,1035.5,5
-435.0,-92.75,-294.25,-122.5,1050.25,432.0,368.0,1015.25,5
-374.5,-23.25,-996.75,-207.5,698.25,580.5,250.0,985.0,5
-140.0,-17.25,-1102.5,-363.5,104.5,709.25,324.75,936.25,5
-94.0,-51.25,-1184.25,-348.0,465.0,769.5,532.25,911.5,5
-45.25,-71.25,-1166.25,-63.0,1168.0,605.5,548.75,906.0,5
4.25,-37.0,-355.5,155.25,915.5,270.75,363.25,854.0,5
-37.25,6.5,519.75,213.5,552.25,40.0,116.5,826.75,5
46.0,61.25,661.25,278.5,189.25,-98.25,19.0,748.5,5
56.5,106.75,748.25,245.5,45.75,-121.0,20.25,692.0,5
194.0,80.25,857.25,191.75,77.5,-3.75,115.75,702.5,5
366.0,112.25,965.25,94.5,0.75,48.25,173.25,627.75,5
293.5,93.5,918.0,-13.5,-130.25,80.0,217.5,544.5,5
168.0,70.5,937.0,-39.25,-240.75,47.5,196.25,476.0,5
68.0,-1.0,901.0,-53.75,-117.5,-244.5,379.75,402.75,5
-24.25,-113.0,808.75,-100.25,81.5,-786.0,792.5,362.5,5
-256.0,108.0,959.5,-424.75,213.75,-1275.75,1290.75,72.75,5
-891.0,693.0,1420.5,-852.25,-125.25,-1715.5,1074.25,40.5,5
-861.0,707.75,1163.5,-712.25,-341.0,-1655.5,491.5,297.25,5
-493.0,588.0,745.0,-504.0,-357.75,-1376.25,749.5,426.0,5
-430.75,621.75,402.75,-602.0,-495.5,-1100.0,905.25,513.5,5
-214.25,528.75,-493.75,-440.75,-588.0,-685.0,440.0,744.25,5
-134.75,262.0,-837.25,-311.0,-922.75,-315.25,58.25,936.0,5
-325.25,21.0,-936.75,-134.5,-1487.25,79.25,-449.5,1251.25,5
-356.75,-7.0,-595.0,-227.75,-1704.0,265.0,-620.75,1565.75,5
-296.75,64.5,-914.5,-370.5,-1496.5,300.0,-650.25,1926.0,5
11.5,-22.75,-852.0,-220.0,-1229.25,430.25,-527.25,2167.75,5
-243.25,-31.75,-382.5,0.0,-980.0,272.25,-492.5,2354.25,5
-219.5,-133.5,-265.75,281.75,-747.25,356.5,-500.75,2372.5,5
29.25,-166.0,-153.75,417.75,-747.5,436.5,-380.0,2292.5,5
103.25,-318.5,-289.0,529.0,-824.5,624.25,-372.5,2197.0,5
429.25,-401.5,-197.75,567.0,-984.25,817.75,-357.75,2008.0,5
416.5,-462.0,103.0,731.75,-1123.25,998.75,-335.75,1866.5,5
185.25,-536.25,444.5,771.5,-1048.5,1290.5,-363.75,1721.5,5
-167.25,-525.75,445.5,650.75,-901.5,1447.0,-441.0,1411.5,5
-193.75,-469.75,485.25,413.75,-673.5,1596.0,-666.25,908.25,5
119.25,-316.25,251.5,178.75,-403.75,1513.75,-792.75,431.5,5
350.5,-242.0,-134.75,49.75,-391.75,1402.25,-643.25,152.5,5
379.75,-187.75,-213.25,-174.0,-302.25,1355.5,-545.0,8.25,5
261.0,-156.0,-364.75,-178.25,-191.0,1366.25,-409.0,-361.0,5
202.75,-148.75,-531.0,-155.75,-186.75,1200.0,-333.0,-845.5,5
117.75,-166.75,-693.25,204.0,51.25,829.25,-256.75,-1072.75,5
20.75,-248.0,-742.0,472.75,349.25,366.0,-138.0,-1125.75,5
-152.75,-304.25,-973.0,184.0,498.5,-113.5,-183.25,-742.5,5
-323.75,-330.0,-1440.0,107.25,536.5,-457.0,-276.5,-249.0,5
-662.0,-361.25,-1153.5,181.0,623.75,-766.25,-414.75,271.0,5
-518.75,-406.0,-202.25,179.25,548.0,-799.5,-475.75,393.5,5
139.75,-464.0,125.25,133.25,424.0,-711.75,-555.75,140.5,5
554.25,-444.25,259.0,204.0,357.75,-689.75,-558.25,-138.25,5
874.5,-426.25,-425.25,187.75,381.75,-633.25,-385.75,-304.0,5
871.25,-374.25,-997.75,36.5,498.5,-380.0,-230.5,-479.5,5
764.5,-259.0,-627.5,-47.75,619.0,-102.75,-79.25,-823.75,5
811.5,-148.5,36.25,-61.5,843.5,232.25,53.75,-709.25,5
416.75,-64.5,-325.75,-41.25,974.0,350.75,191.75,-644.0,5
414.25,-28.75,-734.25,-2.0,949.5,413.0,349.5,-604.75,5
676.25,46.25,43.25,101.75,818.5,492.5,488.75,-632.0,5
566.75,97.25,787.0,84.0,620.0,250.0,621.25,-679.5,5
352.25,134.5,920.75,-41.75,269.25,326.25,637.0,-760.75,5
114.5,136.25,660.25,-249.25,234.25,375.5,511.75,-737.5,5
-151.75,47.5,455.75,-266.0,472.5,169.75,402.25,-439.25,5
-160.0,-44.25,361.25,-94.5,549.5,-42.5,291.0,-340.75,5
-157.75,-63.0,411.5,-135.75,677.75,-223.5,127.0,-372.75,5
-161.0,-25.75,990.75,-215.75,549.0,-373.75,-17.75,-579.5,5
-306.75,-2.75,1510.25,-174.75,640.0,-193.25,32.75,-784.5,5
-413.0,51.5,1467.75,-158.75,973.5,251.0,194.5,-801.75,5
-550.75,122.0,937.25,-225.5,1130.75,384.25,252.75,-819.75,5
-702.5,123.5,-245.75,-285.75,1413.75,425.25,272.25,-794.0,5
-878.25,84.75,-861.0,-193.0,1431.75,329.75,189.5,-822.75,5
-1179.25,113.5,-1557.25,14.0,1399.25,75.75,35.75,-884.5,5
-463.5,120.25,-1632.5,228.25,1138.5,-131.75,-58.0,-877.75,5
353.25,25.5,-749.5,318.0,791.5,-160.25,-219.25,-899.5,5
280.25,-102.25,-352.5,221.75,743.75,170.75,-485.5,-916.25,5
325.0,-278.75,-427.25,131.0,824.25,482.75,-777.5,-948.25,5
239.75,-319.0,-333.0,33.75,678.75,356.75,-956.75,-1001.75,5
98.75,-204.5,-67.0,5.5,550.25,338.0,-1153.5,-682.5,5
266.5,-155.0,42.75,-134.25,517.0,59.75,-1092.75,-341.5,5
-197.5,-130.25,-136.5,-655.0,462.75,-528.75,-742.5,92.25,5
-899.25,-87.75,-370.25,-918.75,378.25,-918.75,-540.25,585.5,5
32.25,-55.0,-371.5,-637.0,271.0,-1123.75,-104.0,813.5,5
827.0,-61.5,256.25,-311.25,-527.75,-1025.5,297.75,725.0,5
171.25,-89.0,622.0,-114.5,-1489.0,-961.5,243.25,536.5,5
-108.0,-67.25,616.75,146.25,-1512.75,-591.25,41.75,335.25,5
-25.75,27.25,971.0,378.0,-1567.25,-168.5,-19.0,327.75,5
-192.5,121.75,778.75,310.0,-1281.0,-76.25,104.0,270.5,5
14.0,116.5,555.25,-99.75,-511.0,3.0,233.25,-92.0,5
536.25,156.5,111.5,-259.75,28.75,24.5,231.75,-403.25,5
11.25,182.75,-709.25,-138.5,207.25,73.0,111.25,-818.5,5
-984.0,162.25,-892.5,-50.25,-491.75,176.5,272.0,-1488.25,5
-1029.0,172.25,-544.75,37.0,-1294.0,293.0,228.75,-2260.25,5
108.75,146.75,-392.0,97.5,-1631.5,276.0,208.75,-2184.0,5
1029.75,152.75,-955.75,143.75,-1726.5,333.5,693.5,-1930.25,5
952.75,224.25,-1300.5,-44.5,-1248.5,225.5,707.0,-1874.75,5
887.0,331.25,-1256.5,-381.0,-840.75,-253.25,570.75,-1943.25,5
1277.5,378.75,-771.25,-313.25,-235.25,-613.25,513.75,-1787.25,5
1178.25,336.75,1156.25,-7.0,32.25,-741.25,314.75,-1630.5,5
750.25,340.5,1179.5,-389.0,-138.5,-659.5,180.5,-1483.25,5
-274.5,412.75,714.5,-813.75,-523.25,-870.75,102.0,-1211.5,5
-936.75,303.5,334.5,-319.75,-521.0,-928.75,4.25,-850.0,5
-1276.5,-116.25,391.25,536.25,190.25,-731.0,-31.0,-299.75,5
-1388.5,-303.75,1217.75,863.75,941.75,-551.25,-178.75,100.75,5
-1166.0,-265.5,1620.0,960.25,1181.75,-416.0,-497.75,337.25,5
-960.5,-292.25,1416.0,997.5,954.25,-123.0,-517.0,603.5,5
1.5,-327.75,270.5,767.0,76.5,472.0,-319.0,874.25,5
788.25,-293.75,-1089.25,619.0,-1097.0,456.0,-70.0,1157.5,5
358.0,-253.0,-1706.25,714.75,-1115.5,190.5,-61.75,1276.75,5
296.5,-190.25,-1071.25,892.5,-1247.75,-226.5,52.75,1154.0,5
317.5,-93.25,-586.25,742.25,-970.75,-605.75,159.75,897.25,5
-257.5,91.0,69.75,392.0,-521.75,-590.75,207.5,591.0,5
-591.0,128.0,789.0,103.0,45.25,-488.0,161.5,443.5,5
-560.25,181.25,1821.5,-230.0,104.0,-396.5,1.5,488.75,5
377.0,266.25,1257.0,-426.25,-260.5,-166.25,71.5,467.75,5
388.0,198.25,511.0,-332.75,-145.75,-47.25,290.25,245.25,5
81.5,112.25,-238.75,-176.25,-556.0,-184.25,664.5,9.0,5
-267.25,5.25,-541.0,-393.75,-542.0,-341.75,867.25,-91.5,5
-690.25,130.25,-727.75,-420.0,-481.0,-425.75,745.0,-64.75,5
-424.5,168.25,-985.25,-325.25,-184.0,-362.0,712.5,-36.25,5
-236.75,171.0,-893.5,-362.5,251.5,-276.25,926.75,-30.0,5
-127.75,343.75,-1010.25,-337.75,329.0,-72.0,1260.75,50.25,5
-475.5,470.75,845.25,-354.0,264.75,-155.25,1450.5,142.25,5
-562.5,519.25,476.5,-344.0,78.5,-116.75,1478.0,308.25,5
-189.25,444.0,274.5,-253.5,319.25,140.0,1171.5,401.0,5
285.5,335.0,376.5,-228.0,743.75,378.75,968.5,413.75,5
524.0,286.75,399.25,-322.0,1125.25,767.25,645.25,361.75,5
562.5,331.5,409.0,-378.5,1100.75,812.5,199.5,297.5,5
428.5,372.75,636.0,-528.5,1057.25,565.5,-170.75,283.0,5
237.0,490.5,1189.25,-656.0,944.0,256.5,13.75,196.5,5
130.0,443.25,1666.0,-617.25,806.25,340.5,-8.0,184.5,5
-113.0,191.0,2077.25,-473.5,944.0,268.75,-103.5,187.5,5
-284.25,63.75,1417.0,-301.0,1062.75,169.75,-66.75,217.5,5
-664.5,-25.75,803.25,-189.5,971.25,502.0,-220.75,258.25,5
-696.5,-62.5,351.75,-123.0,569.25,655.75,-19.0,225.5,5
-466.5,-71.75,98.75,-115.75,290.75,612.75,-88.5,201.75,5
-137.25,-166.75,-1.75,-66.5,45.0,423.75,-96.75,160.0,5
363.5,-286.75,-787.0,-137.5,-34.25,252.25,384.75,124.75,5
673.0,-253.0,-2103.5,-185.5,-128.5,41.0,394.0,93.75,5
834.0,-39.5,-2015.25,-67.0,-205.0,-122.25,449.75,56.25,5
737.75,134.75,-1943.75,47.5,-90.0,-190.25,670.5,-77.0,5
563.5,191.75,-169.0,184.25,-129.75,3.75,300.5,-155.25,5
243.75,169.5,1006.5,326.5,-284.25,297.25,-114.25,-166.0,5
-26.5,171.5,1992.75,382.5,-451.25,342.75,-538.25,-199.25,5
-277.5,237.75,2229.0,347.25,-289.25,221.0,-434.0,-165.75,5
-482.0,324.5,2206.25,324.75,-69.0,165.0,-47.0,-177.75,5
-566.5,281.5,2149.5,234.5,213.0,388.75,-120.75,-229.25,5
-614.5,228.0,1956.25,-111.5,405.0,870.75,-395.0,-319.0,5
-598.0,125.25,1038.0,-880.5,303.0,1151.75,-565.5,-386.75,5
-545.5,-44.25,348.0,-970.25,182.25,1165.5,380.5,-361.75,5
-438.25,-156.25,297.25,-527.75,-84.25,1199.0,1049.0,-370.0,5
-359.75,-162.0,-76.25,-75.75,-423.25,1197.5,942.5,-360.0,5
-218.0,-45.5,-619.75,366.0,-646.75,1203.25,682.0,-339.5,5
-120.25,33.25,-1286.0,667.75,-638.75,376.25,303.0,-518.0,5
-5.75,45.75,-1814.5,163.75,-561.0,-571.25,-226.25,-654.75,5
77.5,22.5,-1841.25,-340.75,-575.75,-732.75,-672.25,-539.25,5
50.25,-101.75,-1900.75,-274.0,-502.5,-753.0,-604.75,-487.0,5
-98.5,-345.0,-1772.5,152.25,-546.75,-782.0,-499.25,-618.75,5
-244.25,-579.75,-1595.0,281.75,-795.25,-495.5,-509.75,-718.75,5
-235.0,-740.25,387.5,174.0,-806.75,-510.25,-315.25,-811.5,5
-523.25,-621.5,326.0,152.25,-734.0,-563.0,147.0,-858.0,5
-1031.25,-325.0,343.25,70.75,-533.75,-572.75,245.75,-968.5,5
-1074.75,-87.75,242.0,44.25,-359.25,-473.0,12.75,-1033.0,5
-676.25,65.0,4.0,-205.75,-293.0,-304.0,-195.5,-1029.0,5
-15.5,115.25,16.5,-303.75,-284.5,-44.0,-371.25,-877.5,5
599.25,64.75,-112.5,5.25,-230.25,101.75,-479.0,-694.25,5
1061.5,-23.5,-679.5,-231.0,259.25,216.25,-497.25,-700.5,5
1091.5,-29.25,-895.0,-270.5,491.0,294.75,-405.0,-675.0,5
1123.5,23.25,-935.25,56.75,562.75,358.75,-392.5,-733.25,5
1168.0,64.75,-1528.5,-241.75,676.5,469.5,-417.25,-802.0,5
1333.0,103.75,-1745.5,-17.5,454.75,421.75,-640.25,-909.75,5
1460.0,262.5,-1772.0,477.75,210.0,358.75,-744.0,-958.75,5
1205.75,409.25,-923.0,276.25,86.5,369.5,-668.25,-1008.0,5
619.5,495.5,-146.0,34.75,83.75,377.25,-548.5,-1034.75,5
-191.0,504.25,234.75,75.5,123.25,378.5,-347.75,-1041.75,5
-885.5,361.0,260.5,201.25,142.0,334.25,-233.5,-1018.25,5
-1395.25,247.25,364.5,218.25,-2.5,261.25,-167.5,-471.25,5
-1682.5,-110.25,554.25,-47.75,-247.0,81.5,-144.0,-59.25,5
-1673.5,-516.75,659.5,-259.25,-474.25,-159.75,-182.5,248.5,5
-1586.5,-545.75,808.0,-115.5,-487.5,-339.5,-211.0,279.5,5
-1561.75,-642.25,810.5,-87.5,-209.5,-411.5,-178.0,350.0,5
-1375.0,-683.25,713.0,74.25,57.0,-327.75,-191.5,480.5,5
-1193.75,-486.5,408.5,72.0,163.25,-200.0,-166.0,563.75,5
-1244.0,-168.5,-183.25,98.75,-1.5,-295.0,-134.0,630.5,5
-1089.25,56.25,-609.0,396.25,-301.5,-300.0,-153.5,652.5,5
-889.75,189.0,-912.75,399.75,-538.75,-251.25,-254.25,728.5,5
-585.5,216.5,-781.0,442.25,-682.0,-238.25,-345.25,699.75,5
-297.5,-106.5,-690.75,457.0,-561.5,-298.0,-351.5,720.5,5
-36.5,-294.75,-562.25,307.0,-425.75,-290.25,-251.5,816.75,5
465.25,-376.75,-344.0,311.25,-566.25,-49.25,-148.0,822.75,5
609.75,-345.75,-343.5,208.5,-693.0,123.0,-308.0,760.5,5
993.0,-57.5,-426.25,-94.75,-673.25,253.25,-524.5,777.5,5
1226.25,235.5,-831.25,-335.0,-729.25,306.75,-573.75,723.0,5
1337.5,279.5,-902.25,-325.75,-681.25,393.5,-410.5,770.25,5
1358.75,139.5,-1054.0,-240.0,-434.0,526.25,-192.75,794.75,5
1295.75,-410.75,-436.5,183.0,-388.5,564.75,-45.75,728.0,5
1230.5,-890.75,203.25,823.0,-467.75,488.25,23.75,697.25,5
1196.5,-511.25,675.0,932.25,-669.75,455.25,51.5,612.5,5
730.0,108.75,666.75,1042.0,-932.0,451.5,0.75,566.75,5
188.25,532.0,593.25,1210.5,-1060.75,346.25,-98.75,548.25,5
-182.75,527.25,285.5,885.75,-839.25,354.75,-209.0,599.0,5
-376.0,591.25,-876.5,-81.75,-436.0,532.25,-395.25,533.5,5
-736.5,522.25,-943.5,-1222.0,-237.75,453.0,-411.0,498.25,5
-766.25,74.5,-905.75,-1567.0,3.25,352.25,-481.75,510.25,5
-805.0,-139.0,-783.25,-1184.5,223.0,225.5,-700.0,473.0,5
-819.0,-364.5,-659.75,-1174.25,177.5,-88.5,-769.75,421.75,5
-829.75,-531.75,-60.25,-848.75,166.25,-280.5,-582.5,454.0,5
-841.5,-648.5,329.25,-76.0,242.5,-452.25,-34.75,479.75,5
-671.25,-632.75,536.0,-157.0,163.0,-488.5,389.5,412.25,5
-682.25,-511.75,657.75,-67.75,-35.5,-555.25,401.5,391.5,5
-995.0,-322.0,536.0,-222.75,-282.0,-562.0,400.5,307.5,5
-1005.75,-190.0,563.75,33.25,-330.5,-625.25,235.75,178.5,5
-113.5,-256.5,1103.5,269.0,-251.25,-756.0,-85.75,191.25,5
250.25,-71.25,1074.25,525.0,-102.5,-916.25,-194.0,132.25,5
913.75,158.5,789.5,558.0,49.75,-1087.75,-211.75,-35.5,5
1059.25,292.5,799.5,140.75,128.5,-1146.0,56.5,-37.5,5
1082.0,339.0,833.0,-204.0,232.75,-1144.0,431.25,-145.0,5
876.25,290.0,414.5,-475.0,226.75,-1144.5,514.5,-337.0,5
550.25,259.25,45.25,120.5,222.0,-1158.5,506.75,-213.5,5
520.5,209.25,157.5,317.0,185.0,-1161.5,505.0,-162.5,5
510.25,265.75,-95.0,95.5,157.0,-1113.0,271.5,-392.5,5
487.5,375.5,-143.0,22.25,78.25,-983.25,-73.0,-612.5,5
440.75,329.25,9.75,-92.5,72.5,-821.25,-128.75,-687.75,5
-202.5,292.0,-127.25,83.0,207.25,-651.0,14.75,-614.75,5
-1204.0,319.75,-30.75,182.0,310.25,-456.25,159.25,-387.25,5
-1203.25,270.25,-211.25,380.25,403.75,-269.25,156.25,-86.0,5
-1051.75,305.5,-615.0,620.75,436.0,-48.75,141.75,91.75,5
-728.25,312.5,-883.75,533.0,373.75,172.25,289.0,238.0,5
-306.5,301.0,-814.0,539.5,355.75,470.25,258.25,356.25,5
636.0,290.0,-817.25,441.0,422.25,734.25,216.75,445.75,5
1031.0,112.0,-519.75,104.0,614.5,855.5,411.75,542.5,5
1272.0,22.25,-10.25,-115.75,823.25,918.25,506.25,567.25,5
1445.0,73.25,252.25,-242.5,743.5,986.75,427.5,556.25,5
1513.0,234.75,703.25,-248.25,657.0,1003.0,403.25,449.0,5
1254.75,358.25,789.0,-214.75,597.25,1017.5,544.5,352.0,5
961.75,309.75,772.25,-238.0,515.75,1029.75,552.0,324.75,5
447.0,140.25,814.25,-245.5,486.75,1006.0,423.75,253.0,5
-699.75,65.5,965.75,-185.75,455.75,1001.5,494.75,217.25,5
-982.75,-11.5,414.25,-111.0,522.0,994.0,793.0,66.5,5
-1117.5,51.0,-902.0,-73.5,511.25,674.75,776.0,-113.0,5
-1280.5,108.5,-844.0,6.25,517.75,397.75,594.25,-259.0,5
-1418.0,-227.5,-929.0,59.0,533.0,364.75,568.0,-601.75,5
-1324.75,-371.0,-985.75,75.0,531.0,260.25,600.0,-780.5,5
-1053.5,-209.25,-994.0,186.25,544.0,339.5,704.5,-891.5,5
-966.0,-39.25,-1002.5,230.0,536.0,449.25,496.0,-1024.75,5
-446.75,-110.75,-1018.25,226.5,443.25,337.25,447.25,-1143.0,5
367.25,-90.5,-664.75,143.25,219.5,391.25,468.75,-1303.75,5
640.5,-56.0,50.5,-51.0,6.25,329.5,404.25,-1311.5,5
675.25,-428.5,944.0,-134.5,-118.5,274.0,563.5,-1210.25,5
727.25,-756.0,973.25,-162.0,-127.75,223.25,347.0,-982.25,5
1150.25,-613.0,1001.75,-130.25,79.25,224.5,79.0,-880.0,5
1912.0,-180.0,1026.25,-116.5,449.25,275.5,-19.75,-814.0,5
1742.0,56.75,1010.25,-93.0,681.5,147.25,8.5,-703.75,5
1053.0,334.25,1005.75,-74.5,581.75,77.0,23.25,-588.5,5
35.25,410.0,1024.25,13.75,442.25,109.25,-1.0,-472.0,5
-330.25,94.25,196.0,318.75,506.25,123.0,-31.25,-335.0,5
-781.0,-510.0,-723.5,396.5,309.5,219.0,-48.5,-247.0,5
-931.5,-1035.5,-1075.25,437.25,-228.5,457.5,-48.0,-286.5,5
-892.25,-763.5,-903.25,476.75,-531.5,582.75,-108.0,-276.25,5
-506.0,-435.0,-267.0,523.0,-534.5,523.5,-132.0,-99.75,5
-798.5,-433.25,354.5,235.75,-540.0,278.0,-184.5,6.5,5
-1121.5,-252.75,710.25,-606.75,-508.25,-103.0,-238.25,114.5,5
-1244.25,11.0,767.25,-1062.0,-400.25,-414.25,-334.5,232.75,5
-2042.0,644.5,-190.0,-1016.75,-191.5,-498.0,-478.0,204.5,5
-2028.5,888.25,-924.0,-814.75,30.5,-330.25,-746.25,129.5,5
-1172.25,529.75,-1458.25,-499.5,87.25,-124.0,-905.75,86.75,5
-132.25,214.5,-1878.0,96.5,53.5,4.0,-725.25,140.25,5
60.75,-234.75,-1401.75,205.5,52.25,35.0,-364.25,178.75,5
18.5,-288.75,-483.25,102.25,111.25,-69.0,-86.5,287.5,5
529.25,-144.0,283.5,-63.75,110.75,-205.25,59.75,460.5,5
1165.25,-74.5,634.5,-104.75,139.5,-279.25,-79.0,400.75,5
1474.25,-48.25,951.25,-197.75,212.75,-360.0,-412.75,515.0,5
2043.75,-62.0,998.25,-288.0,232.75,-246.75,-507.75,632.5,5
2011.75,-133.25,747.25,-493.5,263.25,-162.75,-311.75,625.5,5
764.0,-506.0,559.25,-341.0,284.5,-282.75,-243.25,571.5,5
-1690.25,-590.0,-191.0,112.25,295.25,-84.5,-427.25,327.75,5
-2101.0,-84.5,-1170.25,277.25,299.25,31.0,-426.75,142.0,5
-2151.25,471.75,-1441.5,439.25,274.5,-164.75,-387.25,-164.0,5
-2147.5,501.25,-1476.25,293.5,268.0,31.5,-399.5,-358.75,5
-2092.75,300.0,-1892.75,133.0,252.75,316.25,-376.5,-427.0,5
-2004.5,142.75,-2041.5,-160.75,250.25,303.5,-397.5,-650.25,5
-1133.75,-7.0,-1516.25,-336.0,341.25,367.75,-456.0,-612.75,5
98.25,-182.25,508.0,-254.0,363.5,400.25,-423.5,-475.75,5
1202.75,-296.5,1972.75,-274.0,314.0,642.75,-263.25,-495.5,5
1328.25,-171.0,1982.75,24.75,317.75,937.5,-156.25,-485.75,5
1438.25,168.0,1981.75,121.5,263.5,854.75,9.75,-521.5,5
1795.75,565.0,1974.0,-12.25,320.25,787.0,134.5,-752.0,5
1907.75,614.25,1974.75,261.25,355.0,249.25,147.5,-1273.75,5
2011.5,474.0,1459.25,594.0,342.0,-496.5,209.5,-1433.25,5
1840.25,352.0,677.25,437.5,401.25,-887.75,245.5,-1237.5,5
1878.0,542.5,146.25,371.25,446.0,-916.25,286.25,-941.0,5
1824.5,900.25,26.75,189.75,555.25,-911.75,423.75,-394.25,5
1441.5,734.0,-574.5,-85.25,579.75,-861.25,457.75,-202.0,5
1245.75,310.0,-1302.5,81.0,556.75,-802.0,539.25,-60.75,5
1010.75,-0.5,-1139.5,483.5,537.75,-587.5,650.75,266.25,5
809.0,-436.25,-1184.75,663.25,533.25,-177.0,674.0,593.25,5
592.0,-575.75,-1484.0,454.75,514.75,179.75,668.75,835.25,5
181.75,-384.0,-1699.75,257.0,446.75,474.75,619.75,1009.0,5
-424.25,-547.0,-1929.5,4.75,365.75,599.75,632.0,1286.5,5
-612.0,-915.25,-1953.75,-75.0,253.5,754.25,493.0,1388.75,5
-915.0,-997.75,-1987.0,-283.75,183.25,672.75,367.0,1244.75,5
-1192.25,-705.25,-1993.25,-485.0,143.75,496.25,394.25,1187.75,5
-1470.0,-510.75,-1737.5,-492.0,128.75,347.75,414.75,1287.25,5
-1578.25,-365.25,-810.5,-482.5,131.5,80.75,408.25,1518.75,5
-1554.75,195.25,37.5,-359.75,133.75,-169.0,401.0,1573.75,5
-1517.0,648.75,1428.75,-256.75,108.0,-389.25,379.25,1661.75,5
-1169.75,756.5,2053.5,-170.0,55.75,-492.0,336.5,1834.5,5
-156.5,747.5,1930.75,-188.75,-10.5,-559.5,300.0,1984.75,5
577.0,754.0,2047.25,-137.25,-77.0,-549.25,183.75,2131.0,5
485.5,797.75,2042.75,-50.75,-129.25,-506.75,58.0,2107.5,5
528.0,825.25,1708.5,67.0,-230.75,-427.5,-18.0,2164.25,5
682.0,1102.25,1367.5,195.25,-349.75,-299.5,-53.75,2120.25,5
909.75,816.0,772.0,266.25,-469.75,-161.75,-116.0,1959.0,5
404.25,108.75,328.75,270.5,-526.5,-15.25,-177.0,1710.25,5
-229.75,-692.0,228.5,174.75,-542.5,58.0,-266.75,1555.75,5
-635.5,-829.0,11.75,139.0,-513.0,107.5,-318.0,1449.25,5
-921.25,-744.75,-557.25,223.5,-390.5,195.5,-279.5,1247.75,5
-903.25,-635.0,-1022.75,273.5,-298.25,232.5,-220.0,1036.25,5
-834.0,-602.75,-932.5,242.5,-313.75,213.0,-70.5,871.75,5
-844.5,-709.25,-129.25,498.75,-388.75,143.25,117.25,769.75,5
-610.25,-830.5,22.0,793.0,-446.75,65.25,274.75,573.75,5
-456.25,-227.5,-0.75,642.25,-559.5,9.5,218.75,415.25,5
-392.25,84.5,-25.75,196.0,-641.25,-65.5,39.0,330.25,5
-400.25,430.75,-544.0,78.0,-720.25,-92.75,-72.0,304.75,5
-832.75,825.0,-1490.0,-112.5,-799.5,-132.25,-175.75,277.75,5
-1311.5,660.75,-2027.0,-535.25,-568.25,-163.5,-227.25,271.5,5
-1533.0,303.5,-2021.5,-471.5,-365.25,-153.0,-320.75,335.25,5
-1188.5,328.5,-2036.0,-248.75,-212.75,-144.75,-392.0,353.75,5
-465.75,422.75,-2103.25,-258.25,-46.25,-165.25,-337.75,303.25,5
673.5,418.0,-2161.25,-497.75,-101.25,-231.5,-265.5,82.0,5
1220.75,192.0,-2156.5,-531.25,-102.0,-124.0,-70.5,-217.25,5
1559.5,205.75,-1543.25,-316.0,-146.75,9.75,8.0,-513.0,5
1783.0,268.0,-900.75,-355.75,-196.0,-39.0,-29.25,-788.75,5
1583.0,278.0,431.75,-387.75,-151.75,-218.25,-37.75,-1087.0,5
1339.5,276.0,2015.5,-395.0,-86.0,-435.5,-18.0,-1461.0,5
1143.5,424.75,1945.25,-352.75,-43.5,-354.75,40.75,-1794.25,5
888.25,426.0,1917.0,-121.75,-33.25,-44.25,7.5,-1800.75,5
-133.25,166.25,1976.0,123.75,33.75,191.25,-123.25,-1540.5,5
-587.25,71.0,1685.75,340.25,35.25,329.5,-279.25,-1356.0,5
315.5,-39.5,1296.25,566.25,14.75,261.5,-223.0,-1308.25,5
576.75,-117.0,1038.5,632.75,41.25,-78.75,-181.25,-1456.75,5
386.25,-124.0,903.0,577.0,82.5,-430.25,-264.75,-1562.0,5
-785.5,22.75,949.25,443.0,132.25,-580.5,-384.25,-1402.0,5
-1283.0,-28.25,-147.75,290.75,184.25,-667.0,-453.0,-1235.0,5
-671.0,-164.75,-1213.25,346.25,197.75,-615.75,-316.25,-1247.5,5
-580.25,-383.5,-1288.5,270.25,133.5,-498.25,-116.25,-1316.25,5
-282.75,-547.0,-1026.5,44.0,14.25,-388.5,93.5,-1222.75,5
-762.75,-190.5,-841.0,-206.75,-163.0,-392.0,134.75,-963.75,5
-637.0,-104.5,-1134.25,-511.25,-215.5,-675.0,0.75,-836.0,5
-487.75,-455.0,-1987.5,-723.5,-39.25,-926.75,-138.75,-772.5,5
-2143.75,-793.75,-2391.5,-775.75,306.5,-1086.25,-138.0,-669.0,5
-2071.25,-674.25,-2744.75,-786.5,673.5,-1068.5,-85.0,-754.75,5
-1069.25,-253.5,-2691.75,-936.0,777.5,-1009.75,-120.25,-764.75,5
2007.25,-68.0,-2606.5,-934.25,708.0,-969.0,-90.5,-506.75,5
2113.5,-66.0,-1345.75,-885.75,611.75,-914.5,-66.0,-243.25,5
2136.5,-93.5,656.0,-888.25,374.5,-865.75,-130.5,-87.0,5
1953.75,8.5,1830.25,-815.25,80.25,-707.75,-211.0,107.5,5
1608.5,32.25,2225.0,-806.5,-52.75,-397.75,-236.0,290.75,5
884.0,117.75,1265.5,-775.25,-39.25,-56.25,-202.5,214.75,5
-260.75,337.5,954.75,-555.75,-51.0,233.0,-169.5,3.5,5
-283.25,337.0,670.0,-289.0,-150.75,581.5,-76.25,24.0,5
-275.25,440.5,630.5,-54.75,-292.25,812.75,41.25,1.5,5
-108.0,627.5,646.0,116.5,-429.25,917.75,67.5,-355.25,5
-19.25,779.75,1671.5,-34.75,-559.5,932.5,229.0,-852.25,5
-553.5,1481.0,2943.75,-340.0,-1028.25,683.0,547.5,-1188.25,5
-2079.25,1684.5,3159.25,-361.0,-1446.5,183.75,471.75,-1102.25,5
-2721.25,1416.25,3020.0,-540.25,-1500.25,107.75,433.0,-971.25,5
-2713.75,1184.25,2872.0,-697.75,-1421.5,456.25,600.5,-869.25,5
-2621.0,887.5,2881.75,-478.25,-1209.25,560.5,487.25,-561.25,5
-2101.5,559.0,2418.75,-72.75,-943.5,626.25,525.0,-265.5,5
-1329.75,224.75,1726.5,610.5,-944.5,628.75,662.75,42.75,5
-989.5,360.25,762.75,951.25,-962.5,557.0,834.0,114.25,5
-652.5,639.0,340.75,785.0,-882.0,738.0,873.25,-12.75,5
-434.25,490.25,53.25,665.25,-465.0,733.25,698.5,17.25,5
-689.5,374.5,-1668.75,683.5,-145.0,798.0,474.5,1.5,5
-848.5,220.75,-2429.5,815.25,93.25,940.0,81.0,-24.75,5
-365.25,78.25,-2629.0,878.5,451.0,1004.25,-1.5,315.75,5
50.0,-19.0,-2802.5,776.0,577.5,954.5,-6.75,871.25,5
93.5,-358.5,-2873.25,645.5,641.0,930.75,-17.25,995.0,5
-153.5,-731.0,-2701.25,693.5,720.25,944.0,8.0,805.75,5
-426.25,-879.5,-2184.5,569.5,838.25,830.25,-65.0,769.75,5
-277.0,-741.75,-2012.5,503.75,926.25,707.5,-266.25,903.75,5
216.5,-729.25,-1828.25,621.0,1081.25,690.75,-345.0,976.25,5
421.25,-784.25,-1549.75,856.75,1167.75,403.25,-269.5,1001.0,5
811.75,-729.25,-1284.75,891.75,1187.25,-22.5,-197.75,942.75,5
1282.0,-678.25,-1020.5,850.0,1423.75,-137.0,-209.25,889.75,5
1432.5,-787.0,-1143.5,711.75,1495.0,-10.0,-289.75,628.0,5
1248.5,-795.25,-772.0,551.0,1268.25,-45.5,-272.5,124.25,5
915.0,-809.25,-430.25,872.5,1092.5,-76.75,-358.0,-110.25,5
943.0,-795.5,-280.25,322.25,1108.25,148.0,-274.5,-275.0,5
1130.5,-589.5,-120.75,-436.25,942.75,-81.0,-144.25,-495.25,5
1207.75,-565.0,-435.0,-559.5,595.25,-203.25,-105.75,-345.25,5
201.5,-654.5,-323.75,-453.5,260.0,15.5,63.25,83.25,5
-1491.5,-602.5,-76.25,-198.5,-23.25,-20.25,309.75,109.0,5
-1550.0,-481.5,193.0,-349.5,-219.0,141.25,413.75,-104.0,5
-609.0,-325.25,157.75,-193.0,-298.5,510.25,387.75,-386.75,5
-767.25,-200.75,192.0,147.5,-321.5,731.25,448.5,-374.75,5
-1120.75,6.25,245.25,-16.25,-66.0,485.0,378.5,-97.75,5
-1651.25,-368.0,379.75,32.0,559.75,532.5,304.5,231.25,5
-1214.5,-582.0,146.0,-495.0,383.25,686.25,486.5,77.5,5
551.25,-325.75,118.0,-727.25,279.25,333.5,412.5,231.0,5
1299.5,-324.5,53.5,-271.75,352.5,-133.75,375.25,738.0,5
2169.5,-44.5,134.75,-875.0,249.25,-429.5,377.75,840.5,5
1690.75,40.5,225.5,-1840.75,486.0,-195.75,289.0,576.25,5
1783.75,-25.5,104.0,-1967.0,547.75,-35.0,228.75,279.75,5
2033.25,-8.5,-296.5,-1748.25,676.25,42.0,233.5,394.5,5
1738.0,75.5,-472.25,-1824.75,699.0,-54.25,312.0,318.5,5
1199.25,318.5,-660.0,-1883.75,831.5,-465.25,353.75,-79.0,5
767.75,658.75,-562.25,-2031.0,812.0,-651.5,422.0,-557.25,5
161.25,1109.5,-17.25,-1792.0,635.5,-438.25,345.75,-1131.25,5
-771.0,1199.0,459.25,-1660.0,406.75,-122.75,356.0,-1654.75,5
-1598.5,1345.25,607.0,-1314.5,-140.75,-248.5,401.5,-1623.5,5
-1777.25,1253.25,274.25,-765.75,-152.5,-414.25,152.75,-1513.75,5
-1835.25,1221.25,-332.5,-588.75,-449.5,-475.5,120.5,-1341.25,5
-1541.25,1354.25,-832.0,-517.25,-877.5,-246.0,67.75,-762.75,5
-1197.5,1172.75,-839.25,-806.0,-1012.5,-11.25,-84.0,-450.25,5
-502.0,932.75,-1070.0,-1185.5,-1229.5,156.5,-72.75,-430.25,5
-861.25,546.0,-1005.5,-950.5,-1307.0,423.25,175.75,-395.25,5
-1787.5,351.5,-549.75,57.0,-925.25,544.75,692.5,-425.25,5
-2222.5,237.0,1453.0,471.5,-502.75,793.0,813.25,-835.0,5
-1862.5,-164.0,1797.5,880.75,-451.0,594.0,296.5,-1461.25,5
-1454.0,-500.25,1653.0,1442.5,-363.0,277.25,-62.75,-1182.0,5
-1591.25,-429.75,1690.25,1795.25,-307.0,102.75,-444.5,-1188.5,5
-804.75,-289.5,1567.0,2230.5,-436.25,-176.0,-736.75,-834.5,5
88.25,-129.0,1277.25,1931.75,-362.25,-253.75,-750.25,-60.75,5
279.0,111.25,272.0,1464.5,-466.25,-320.75,-990.0,263.5,5
190.75,257.75,488.0,1040.5,-402.5,-545.0,-1037.5,808.5,5
587.75,256.25,-3.0,646.25,-365.5,-603.0,-965.75,836.25,5
1545.5,-45.25,385.5,1202.0,-424.25,-322.0,-834.5,998.25,5
1766.25,-267.5,756.75,1495.25,-386.25,-102.25,-796.25,891.0,5
1112.25,-467.25,785.75,1254.0,-433.25,-54.5,-803.25,655.25,5
527.0,-552.0,591.5,1435.75,-541.75,-390.5,-765.75,234.25,5
-86.5,-705.75,527.0,1476.25,-689.5,-1037.75,-726.25,-565.25,5
-273.5,-815.5,84.0,1368.0,-354.75,-1307.75,-705.0,-894.0,5
-157.75,-1018.0,-1090.5,993.0,23.5,-1219.0,-759.75,-413.75,5
116.25,-1253.75,-1993.25,1013.25,247.5,-1048.0,-761.5,216.25,5
258.75,-1289.25,-1927.5,1572.25,353.5,-944.0,-833.0,759.5,5
-666.25,-1465.5,-1537.75,1817.75,508.75,-912.0,-882.25,1604.75,5
-1330.25,-1492.25,-1097.75,1703.25,765.75,-863.0,-893.25,2255.25,5
-1357.75,-1324.0,-933.5,1454.75,915.75,-726.5,-821.75,2750.75,5
-744.25,-1192.0,-875.75,1604.25,916.25,-539.75,-662.75,2809.5,5
-829.75,-942.5,-796.0,1575.25,888.0,-383.25,-460.5,2805.0,5
-1062.25,-596.0,-851.75,1075.0,844.5,-244.0,-312.25,2650.0,5
176.5,-403.0,-772.75,615.5,804.0,-213.0,-153.0,2024.25,5
241.5,-129.25,-887.75,414.75,852.75,-134.0,118.75,1166.5,5
926.25,83.5,-1561.25,-371.25,735.75,-6.0,156.5,214.75,5
1092.5,48.75,-2221.25,-684.75,676.5,155.5,69.5,-661.75,5
793.75,-45.0,-2515.5,63.75,863.5,329.5,97.25,-1307.25,5
915.75,7.5,-2453.0,-304.5,904.5,491.5,181.25,-1515.0,5
309.0,181.0,-2280.25,-710.75,956.25,715.5,273.75,-1780.0,5
241.0,138.5,-1717.75,-860.0,1002.75,896.5,293.0,-1793.75,5
-346.25,226.75,-698.25,-481.75,590.0,1043.25,332.5,-1374.75,5
-747.75,626.5,428.25,-444.25,-131.0,1182.75,373.5,-670.75,5
-1545.25,816.5,277.25,-1344.25,-209.0,1238.5,437.0,-133.5,5
-2029.25,866.75,-88.5,-1616.0,-319.75,1138.75,554.5,73.25,5
-1802.5,719.5,-255.25,-1277.0,-510.75,949.75,583.5,35.5,5
-1558.25,210.75,-361.75,-682.25,-619.25,734.75,555.0,-134.5,5
-1462.75,-205.25,-528.5,-801.0,-565.0,453.75,507.5,-110.25,5
-1186.75,-488.5,-1364.25,-466.5,-302.75,179.75,492.25,52.25,5
-880.5,-580.5,-2156.0,-600.5,-238.75,11.0,463.25,100.5,5
-110.25,-622.75,-2748.0,-635.25,-527.75,46.5,515.75,145.0,5
1317.0,-250.0,-2414.0,-648.5,-762.75,310.75,564.25,200.75,5
1820.75,126.25,-1070.75,-845.75,-749.75,485.5,463.5,366.75,5
2311.75,329.5,-811.0,-703.25,-493.0,391.5,373.75,638.75,5
2624.5,551.75,-622.0,-674.0,-482.75,411.25,295.0,918.0,5
1925.75,571.25,-292.5,-416.75,-716.75,662.0,225.0,929.5,5
-482.75,634.5,740.0,-377.5,-663.5,831.25,106.25,971.5,5
-1143.0,636.25,1321.0,-119.25,-386.5,915.75,-125.0,1152.0,5
-1360.25,678.5,1278.75,83.75,-56.5,968.0,-555.5,1280.75,5
-1124.0,510.5,1386.5,218.5,235.75,941.25,-920.25,1106.0,5
-1314.75,289.75,1496.25,833.5,353.75,870.0,-721.75,917.0,5
1170.0,275.0,1490.0,1323.25,336.0,625.0,-137.75,913.0,5
1623.75,211.25,412.0,934.75,289.25,385.75,87.75,589.5,5
1175.0,178.25,-46.25,557.25,250.25,483.25,-9.25,254.0,5
368.75,247.0,21.25,541.25,236.0,400.75,-36.5,-126.5,5
228.0,338.75,102.0,302.5,112.0,8.75,-105.0,-365.25,5
139.25,343.0,161.5,309.75,-6.25,-337.5,-105.0,-686.0,5
392.5,363.75,98.75,446.0,-168.25,-733.75,-106.75,-897.75,5
595.75,269.0,-85.5,574.25,-420.25,-750.5,-265.0,-849.75,5
584.5,118.0,55.25,124.5,-633.5,-796.5,-310.0,-476.0,5
162.25,74.5,-179.0,-621.75,-833.0,-835.0,-225.0,-290.5,5
-737.75,117.75,-1029.5,-1152.0,-949.75,-846.75,-162.5,-436.75,5
-630.0,141.75,-1907.5,-1385.0,-748.5,-863.0,-106.0,-718.75,5
-811.5,40.75,-1809.75,-1369.75,-161.5,-840.0,-128.5,-729.5,5
-693.5,-75.75,-1415.75,-1386.5,522.0,-849.5,-218.5,-996.0,5
-384.0,-96.0,-1318.25,-1240.25,991.75,-965.0,-359.75,-1118.75,5
217.75,-71.5,-1399.75,-1085.0,972.25,-619.75,-497.25,-1147.0,5
546.0,-24.0,-1415.75,-887.75,960.25,9.75,-537.5,-900.75,5
14.5,-9.75,-117.5,-528.0,924.25,545.75,-502.0,-412.5,5
-128.5,-27.5,187.75,-369.0,923.25,732.75,-380.0,-21.25,5
56.75,-78.0,2.0,-65.5,857.0,673.25,-228.25,548.0,5
-569.25,-274.25,113.25,67.75,578.75,784.5,-34.5,1111.75,5
-1602.25,-395.25,45.0,56.5,70.0,1169.75,12.25,1384.5,5
-2221.25,-340.0,-40.5,92.75,-302.75,1207.5,-35.0,1277.0,5
-2553.5,-313.0,-313.75,359.75,-453.75,947.75,51.0,825.5,5
-1834.75,-270.25,-923.75,610.25,-487.0,927.0,173.75,354.5,5
-626.0,-221.75,-730.5,604.75,-416.5,1058.5,134.75,-221.5,5
-1061.75,-225.0,462.5,393.5,-366.0,1108.75,17.75,-684.25,5
-216.75,-194.0,959.0,195.5,-387.75,1104.0,-17.25,-703.25,5
1496.5,-199.5,1259.0,240.75,-462.0,1136.25,105.25,-704.25,5
1813.75,-253.25,1158.5,118.25,-458.0,1090.75,231.0,-671.75,5
939.5,-331.75,684.0,13.5,-431.25,1049.25,181.25,-657.0,5
936.25,-318.0,-827.75,-44.75,-289.5,978.25,51.5,-531.0,5
516.75,-600.0,-1014.75,17.5,274.75,979.5,-216.25,-69.0,5
178.5,-969.0,-1210.5,519.5,664.0,1038.5,-538.75,140.0,5
370.5,-636.25,-1676.0,756.5,680.25,613.0,-355.75,126.25,5
466.75,-370.5,-1766.0,710.5,650.75,269.5,-208.25,17.5,5
1031.0,-331.25,-1872.75,597.0,643.75,136.75,-217.25,-145.25,5
1506.25,-105.5,-1755.25,489.25,492.0,-303.0,-30.25,-324.25,5
1176.75,-61.75,-1269.25,199.5,432.0,-409.5,32.75,-550.25,5
459.75,97.75,-1210.25,-10.0,172.25,-480.0,26.0,-961.75,5
529.5,17.0,-1096.25,-265.0,6.75,-810.75,70.75,-1293.25,5
-313.25,14.75,-1007.5,-456.25,-270.5,-1014.5,-76.75,-1232.25,5
-817.25,158.25,-612.75,-609.0,-468.75,-1074.75,39.0,-596.5,5
-1894.75,238.25,1416.5,-664.25,-607.75,-1057.0,394.25,-211.0,5
-2198.5,304.25,2218.25,-511.0,-771.25,-1267.75,863.75,257.25,5
-1982.25,244.75,1964.75,-315.75,-900.25,-1632.75,995.25,730.25,5
-1542.75,259.0,1512.5,-279.75,-1084.25,-1741.5,876.0,698.75,5
-1416.0,207.75,1121.75,-305.75,-1129.0,-2177.0,665.0,729.0,5
-2131.25,136.75,1653.0,-413.75,-1185.5,-2332.25,375.25,793.75,5
-1817.75,120.75,2054.25,-381.0,-1126.25,-2339.5,239.75,949.0,5
-557.75,214.0,2493.0,-316.75,-1046.0,-1518.75,342.0,1130.5,5
-523.75,212.5,2540.0,-288.0,-976.25,-1314.25,593.75,930.75,5
-146.0,337.75,2385.25,-207.75,-796.25,-1349.25,701.5,270.75,5
32.75,521.5,541.25,-197.0,-600.75,-909.5,775.75,-37.0,5
566.0,684.0,-849.25,-70.5,-483.0,-963.75,784.75,-64.5,5
1094.75,841.5,-1186.25,-46.5,-317.0,-817.5,720.25,-193.0,5
1213.75,802.25,-1896.75,-151.5,-200.75,-322.5,524.0,-376.75,5
1379.5,752.75,-1783.75,-310.5,-183.0,674.75,387.0,-292.25,5
1919.75,637.75,-1623.75,-545.25,-77.75,806.5,360.75,-141.0,5
842.0,595.75,-1689.5,-590.75,19.75,791.75,277.5,95.5,5
1046.25,716.0,-1813.75,-660.25,250.75,958.0,219.5,406.0,5
819.25,801.5,-1890.75,-727.5,550.0,951.5,94.0,179.0,5
-1149.25,620.25,-1980.0,-641.5,817.25,1128.75,73.5,-97.75,5
-1325.25,405.25,-1906.75,-496.75,1054.25,1164.5,179.75,-459.0,5
-2660.75,263.25,-1748.0,-308.5,1077.5,1102.25,468.0,-1249.25,5
-3292.5,278.5,-1426.75,-362.75,941.5,609.0,947.5,-2095.25,5
-1580.0,322.5,-218.75,-287.25,889.75,369.75,953.0,-2011.25,5
-1333.75,110.75,399.5,-120.75,863.5,343.75,793.5,-1135.75,5
-556.0,-48.5,752.5,-61.25,791.0,340.0,737.0,-138.5,5
-301.5,-75.0,1136.75,-8.0,664.5,376.25,561.0,494.25,5
97.25,-153.5,538.25,-175.25,738.75,522.0,424.5,701.75,5
299.25,-157.25,157.5,-415.75,790.0,568.0,271.25,752.25,5
338.5,-67.5,190.5,-342.75,866.5,746.5,108.25,760.75,5
955.75,116.0,350.5,-205.75,768.25,840.25,57.5,803.0,5
443.75,139.0,-344.75,-131.0,713.5,892.5,-51.5,863.5,5
-181.25,106.75,-1366.0,-16.0,650.25,983.5,-84.5,978.25,5
-1092.5,38.75,-1602.75,75.0,617.0,587.0,-174.5,1113.5,5
-2065.75,-34.25,-1944.0,149.25,520.5,43.5,-171.0,1211.5,5
-2627.5,-32.0,-2136.25,397.0,454.75,-586.5,-180.75,1229.0,5
-2745.0,-79.25,-2165.25,581.0,374.0,-954.5,-188.75,1052.5,5
-2734.75,-191.75,-1811.5,688.5,269.5,-1008.5,-163.5,894.25,5
-2507.0,-360.25,56.75,727.0,420.25,-946.0,-206.25,939.5,5
-1924.5,-424.75,896.5,690.75,755.75,-829.25,-243.25,1267.75,5
-1436.25,-461.25,940.25,458.25,763.5,-794.75,-265.75,1501.25,5
1037.5,-347.75,591.75,376.0,492.5,-621.25,-357.25,1599.25,5
1358.0,-345.75,-4.0,574.25,472.0,-255.25,-673.25,1757.0,5
1167.75,-491.0,-588.75,402.5,458.75,84.5,-696.25,1268.25,5
1202.25,-569.25,-849.75,469.0,162.5,-279.5,-702.0,653.5,5
1142.0,-632.25,-577.0,825.5,-387.0,-606.75,-764.5,89.25,5
905.25,-672.25,12.75,1013.25,-785.0,-736.0,-627.0,-488.75,5
182.5,-654.5,1093.0,1109.75,-861.75,-921.0,-609.25,-593.0,5
239.0,-793.0,1002.25,1236.0,-1019.25,-931.25,-561.25,-652.25,5
240.0,-715.5,766.25,1061.25,-1108.0,-817.0,-429.25,-560.5,5
240.0,-406.75,673.0,898.75,-1053.25,-290.25,-275.25,-368.75,5
979.5,-180.0,221.75,604.75,-986.75,42.25,9.5,-615.5,5
1385.0,-63.25,755.0,350.75,-831.75,168.25,166.25,-601.5,5
1462.25,-37.25,1182.0,126.75,-621.0,144.5,307.25,-377.75,5
955.25,-87.75,968.5,-213.5,-498.75,123.5,317.5,14.5,5
912.5,-155.75,1109.75,-278.75,-487.5,270.75,279.0,396.0,5
1308.25,-20.5,1425.5,-271.75,-369.25,622.0,256.75,442.0,5
1015.25,148.25,1568.0,-97.5,-248.25,945.0,261.5,178.5,5
460.75,301.0,1153.5,265.5,-237.0,987.75,313.5,-6.75,5
891.25,453.25,-12.5,230.75,-184.0,777.0,372.25,-90.5,5
409.0,636.25,41.0,-232.0,-43.5,235.0,427.25,-96.5,5
-321.0,629.25,-481.5,33.25,279.0,-320.5,313.75,42.75,5
-1061.75,537.75,-539.75,452.25,490.25,-905.25,274.0,211.5,5
-1212.75,583.0,-27.75,-219.25,654.5,-1534.0,250.75,262.0,5
-2193.0,449.0,-318.25,-920.5,641.75,-1541.75,172.5,137.0,5
-2692.0,299.75,-808.75,-1093.5,478.5,-1510.5,211.75,195.0,5
-2724.25,288.0,-765.75,-908.0,452.25,-1035.0,234.25,298.0,5
-2415.75,191.75,-645.5,-927.75,341.5,-759.25,264.75,246.0,5
-2608.0,64.25,-847.0,-1597.25,238.25,-394.5,304.25,274.5,5
-2775.5,39.25,-993.5,-1921.25,172.5,14.0,367.75,158.75,5
-2735.0,37.5,-884.25,-1951.5,71.75,443.75,400.75,214.5,5
-2157.5,115.75,-486.5,-1920.75,42.5,613.5,344.75,325.0,5
-1743.5,205.5,418.5,-1780.5,48.5,619.0,337.25,13.0,5
-516.5,207.25,726.5,-1741.0,39.5,557.75,279.75,-365.75,5
620.25,-22.75,1937.5,-1513.75,123.5,389.5,181.5,-772.75,5
360.5,-425.75,2243.5,-1047.5,203.5,403.0,29.5,-1026.75,5
386.5,-594.0,1902.75,-188.0,152.0,427.0,-176.0,-1076.75,5
505.75,-464.25,1683.5,617.0,109.25,600.75,-304.5,-1307.5,5
788.25,-342.5,1483.25,1069.25,46.5,712.25,-387.0,-1546.25,5
1323.5,-271.0,1429.5,1643.0,-144.0,627.75,-405.75,-1383.25,5
261.75,-141.75,982.75,1980.5,-312.25,350.5,-233.0,-1119.75,5
-500.75,211.25,583.5,1682.25,-572.25,-74.75,198.25,-1323.0,5
-2283.25,875.75,541.75,1058.25,-850.5,-654.75,658.75,-1535.75,5
-1063.5,876.75,343.25,860.75,-799.25,-822.0,651.75,-1564.75,5
-1103.5,673.75,-59.75,536.5,-452.0,-451.75,538.25,-1385.75,5
-3.5,636.75,-570.75,106.5,-28.5,-185.25,501.25,-1052.5,5
875.25,435.5,-2398.0,-161.25,483.25,122.5,65.75,-424.75,5
1172.5,-41.75,-3232.75,-3.75,788.0,486.25,-710.75,772.0,5
758.75,-898.5,-3809.75,491.5,991.5,720.75,-991.25,1389.75,5
-1038.5,-975.75,-3292.25,270.75,378.5,224.0,-876.25,1383.75,5
-2292.75,-912.0,-2091.25,76.0,-388.0,-149.5,-823.0,1597.75,5
-2064.75,-1043.5,-1642.25,140.0,-168.25,-79.5,-721.5,1755.5,5
-1491.25,-517.25,-1362.75,-352.75,23.25,-329.25,-358.5,1422.0,5
47.0,-62.5,-1073.75,-499.25,222.75,-202.0,-335.0,1430.25,5
1172.75,149.5,37.25,-539.5,955.0,-126.5,-199.0,1331.5,5
1472.5,37.0,1031.5,54.75,1346.25,224.5,-231.75,1836.25,5
1694.75,-61.0,1181.0,175.5,941.5,481.25,140.25,1490.75,5
1408.75,314.75,923.75,-211.25,580.75,621.25,339.0,1139.0,5
1113.0,638.25,471.0,-515.25,125.5,718.5,742.0,649.25,5
-70.0,952.75,1016.75,-435.5,-75.5,514.0,695.0,755.0,5
-1058.75,193.5,1097.75,619.25,811.75,1051.0,-427.75,1799.75,5
-569.0,-633.5,837.0,999.0,978.75,1257.0,-226.75,1020.25,5
-1535.0,139.25,1636.25,-366.0,-577.75,281.5,1139.25,-392.75,5
-1354.5,566.25,2050.75,-498.25,-606.75,290.5,1172.0,-1105.25,5
-207.5,286.0,1795.25,-134.0,40.75,662.75,821.0,-1038.5,5
270.25,-61.5,1125.5,-177.25,494.5,1105.0,160.5,-616.0,5
1415.5,-1052.75,-86.75,722.5,706.5,1837.0,-693.25,60.25,5
1285.75,-1033.0,-307.0,469.75,189.5,1655.5,-669.25,-123.0,5
535.0,-493.75,-1111.5,104.0,-96.25,1527.25,-688.5,-245.75,5
1505.5,-637.5,-2090.0,436.25,-439.75,1322.0,-612.75,58.5,5
1848.5,-229.75,-1813.25,100.0,-501.0,525.25,-342.75,-117.0,5
1895.0,-238.25,-1352.0,493.5,-414.75,343.25,-568.25,-33.25,5
1459.75,-200.5,-1149.25,453.75,-356.25,175.0,-527.5,-261.25,5
792.75,-171.0,-1205.0,464.5,-546.5,74.5,-665.5,-205.25,5
-43.25,71.0,2.0,-230.5,-1132.5,-82.5,-96.75,-780.75,5
-977.25,870.0,1534.25,-737.5,-1204.75,-581.5,419.75,-927.75,5
-1631.0,959.0,2646.25,-665.25,-1167.75,-1259.25,739.5,-514.25,5
-1364.75,909.5,2461.75,-644.75,-1035.25,-1135.25,674.0,-86.5,5
-538.75,839.5,884.0,-555.75,-680.5,-336.0,234.25,454.25,5
926.75,473.75,-676.25,327.5,286.25,112.0,-768.75,1674.5,5
1396.25,-438.0,-1711.75,1045.0,198.75,162.75,-915.0,1970.75,5
1169.25,-344.0,-1642.5,1023.5,-332.25,-392.25,-575.5,1709.75,5
438.25,-193.5,-543.75,808.75,-507.5,-255.25,-654.0,1833.25,5
30.0,-441.25,328.25,521.75,-621.5,6.25,-292.5,1329.75,5
-307.75,-104.75,1433.25,72.0,-310.75,-392.25,-169.0,881.25,5
-236.75,-257.75,1110.0,-120.25,-448.5,72.0,-25.75,500.25,5
-603.75,256.75,403.25,-974.0,-631.0,171.5,309.5,-219.5,5
-905.75,415.0,-166.25,-925.25,-231.75,393.25,99.0,-30.5,5
-1327.5,-168.25,-80.25,-329.75,271.75,590.25,132.5,-93.75,5
-1460.5,-321.75,-22.5,-347.75,45.0,772.5,192.0,-291.0,5
-874.0,-169.75,-27.25,-288.25,204.5,816.25,218.75,-350.25,5
137.0,-403.0,-647.75,170.0,365.25,679.5,117.0,-396.0,5
802.0,-335.0,-1585.75,15.0,-189.5,539.5,220.25,-581.0,5
1072.75,-293.0,-1502.25,102.5,-128.75,264.25,138.0,-468.5,5
846.5,-277.0,-834.5,-19.5,-533.5,190.0,208.5,-453.5,5
-494.0,53.5,-108.25,-369.5,-523.5,-7.25,244.25,-546.5,5
-761.0,192.5,161.5,-650.5,-606.75,-50.5,399.0,-750.0,5
-1157.75,618.5,490.5,-1181.5,-564.0,-31.25,577.75,-1202.25,5
-31.25,529.0,565.25,-869.75,-85.25,-237.0,218.25,-1239.25,5
556.25,2.75,410.0,-299.5,21.5,-641.25,99.75,-1226.5,5
577.75,168.5,182.5,-667.75,-313.5,-869.0,298.25,-1364.25,5
566.5,506.0,-115.75,-720.5,-274.25,-737.25,141.5,-1066.25,5
313.25,93.25,-529.0,-39.0,309.0,-652.25,7.5,-466.25,5
-96.25,-84.75,-921.5,277.75,105.5,-594.75,-7.25,-28.25,5
-771.5,-15.5,-1037.5,526.0,-120.0,-181.25,-69.75,162.25,5
-1211.25,-28.25,-766.75,444.25,-337.25,463.25,-6.5,244.75,5
-1153.75,30.75,-725.25,342.25,-477.25,981.5,14.75,364.25,5
-789.0,-51.75,-715.25,441.25,-391.75,1212.75,1.75,441.75,5
-685.75,-13.5,-576.75,437.5,-548.0,1084.0,-57.75,430.5,5
-831.0,122.0,-453.0,481.75,-603.25,598.75,-151.25,377.5,5
-915.75,190.5,-354.75,679.5,-630.0,258.25,-330.25,233.75,5
-822.5,73.5,-144.0,650.0,-645.75,31.25,-441.75,139.75,5
-859.5,-65.5,166.25,426.0,-694.75,-233.0,-344.0,168.0,5
-1069.25,-142.75,478.0,484.25,-833.5,-374.0,-206.25,43.75,5
-1310.25,-163.0,648.25,380.25,-998.75,-648.75,-152.25,-60.75,5
-1710.75,-119.5,447.5,189.75,-1153.25,-1286.0,-164.25,-41.75,5
-1559.5,-93.25,264.25,222.25,-1209.75,-1460.75,-173.25,-57.5,5
-1478.75,-154.25,15.0,822.5,-1239.75,-470.25,-243.25,118.75,5
178.75,-259.5,-427.0,1138.0,-1301.0,152.0,-240.5,156.25,5
481.25,-308.0,-358.0,577.5,-1286.5,-204.0,-118.5,-95.0,5
457.25,-241.25,-33.25,-125.25,-1357.25,-200.0,19.0,-294.25,5
458.25,39.25,253.25,-936.5,-1460.25,15.5,61.25,-391.0,5
895.25,269.5,421.75,-1393.75,-1069.25,-393.5,-68.0,-138.75,5
-79.5,-169.5,256.25,-685.25,-239.5,-779.75,-217.0,199.5,5
-559.5,-642.5,351.5,-257.75,-147.5,-1244.75,-214.0,216.0,5
-800.25,-434.25,588.0,-340.75,-404.25,-1841.25,-224.0,247.75,5
-1149.25,-424.75,-84.75,-21.0,-440.75,-2058.25,-383.5,329.0,5
137.5,-411.75,-441.75,11.25,-704.5,-2430.25,-422.25,278.5,5
424.75,-189.0,-475.25,27.0,-656.0,-2357.5,-282.5,271.75,5
901.5,11.25,-288.25,103.5,-587.5,-2445.25,-95.0,330.25,5
2023.25,43.0,1136.75,214.0,-425.5,-2300.75,227.75,371.5,5
1999.25,101.5,1168.5,49.25,-194.75,-1375.5,591.0,241.25,5
1188.25,456.5,988.25,-243.0,-33.75,-82.25,544.25,-43.0,5
539.5,708.0,125.75,-549.75,58.5,350.0,468.5,-563.5,5
-9.0,1059.25,17.25,-885.5,486.0,-127.75,522.75,-837.75,5
-520.25,993.75,1005.25,-831.75,775.0,249.5,509.25,-660.0,5
-909.75,957.75,1520.75,-735.75,752.75,1009.5,804.5,-523.5,5
-587.75,1159.0,1312.0,-825.25,807.25,1359.25,1171.75,-500.5,5
-104.75,1205.75,1290.25,-307.0,1032.25,1502.5,985.5,-405.25,5
-66.5,814.0,1293.5,456.25,1359.25,1383.75,471.25,-395.5,5
-50.25,224.5,602.0,164.75,1334.0,974.0,259.5,-281.25,5
-89.25,-297.25,-382.75,137.75,1171.25,830.0,43.75,-61.75,5
-923.5,-648.5,-908.0,651.75,1019.0,747.5,-9.25,222.0,5
-1218.75,-659.5,-1091.75,676.75,1067.0,592.0,-65.25,358.0,5
-1069.75,-550.0,-1163.75,661.25,1593.75,635.75,-112.0,381.75,5
-1200.75,-512.75,-1253.25,316.25,1704.75,550.5,-67.25,437.5,5
-809.75,-332.5,-1092.0,355.25,1687.75,618.25,-122.0,406.5,5
329.5,-114.25,-752.75,123.75,1623.75,605.25,-190.5,437.75,5
2048.5,260.0,-605.25,-148.25,1582.75,508.25,-329.75,456.75,5
1102.25,574.0,-592.25,-449.25,1573.75,406.0,-395.5,508.25,5
841.25,602.25,-695.75,-963.25,1553.5,278.0,-452.0,588.0,5
-6.0,272.25,-1059.0,-882.25,1517.0,119.25,-580.5,505.0,5
-756.0,-174.5,-1004.0,-755.5,1457.75,51.0,-791.5,480.5,5
1327.75,-392.0,-646.25,-602.0,1415.0,-2.25,-865.75,498.25,5
1784.0,-458.0,-563.75,-444.5,1268.5,-126.5,-610.25,474.75,5
2156.0,-499.75,-795.25,77.75,1066.5,-311.75,-286.75,461.75,5
2292.75,-611.75,-689.5,760.25,899.25,-480.75,-11.0,419.0,5
1710.5,-1245.75,419.25,1226.75,1021.5,-308.75,128.75,728.5,5
956.25,-1799.5,899.25,1259.0,1226.5,152.75,118.25,859.75,5
428.0,-1830.25,1096.75,1037.0,1195.0,595.5,-18.0,778.25,5
-880.75,-1319.5,830.0,1002.0,1028.5,698.75,-102.75,734.25,5
-1142.25,-748.25,590.5,1176.25,884.0,950.75,-214.25,663.5,5
-945.75,-186.25,257.5,817.5,663.0,1137.75,-370.25,456.25,5
-1335.0,115.25,41.25,410.5,668.75,1133.0,-647.0,433.5,5
-2116.5,67.75,-794.25,168.0,519.0,927.0,-891.75,204.5,5
-2272.5,-84.0,-1413.75,297.0,255.5,488.25,-1016.0,29.0,5
-2326.25,-289.0,-1915.0,304.5,74.0,236.25,-984.25,91.0,5
-2174.75,-436.5,-1963.5,91.25,87.5,-105.75,-900.0,-3.5,5
-2206.75,-534.75,-1922.5,238.0,241.5,-232.25,-621.0,-78.75,5
-2129.0,-556.5,-1274.5,101.0,311.5,-225.0,-314.25,-143.75,5
-870.25,-458.75,-742.5,204.0,364.25,-148.25,-106.25,-268.0,5
-260.0,-291.5,-60.5,488.75,314.5,-128.25,50.75,-306.25,5
-259.75,-103.25,359.5,698.5,320.5,-111.5,51.75,-387.25,5
-203.0,348.25,417.25,593.75,141.5,-30.25,25.0,-430.25,5
-20.75,871.25,194.5,634.5,-101.0,-25.25,50.0,-462.0,5
602.0,1038.75,-130.0,890.5,-286.75,55.0,117.5,-355.0,5
2131.0,851.25,-165.25,836.75,-338.5,29.5,204.25,-360.25,5
1651.75,800.75,258.75,443.75,-506.5,-58.5,326.25,-397.5,5
1322.0,525.5,317.25,-325.75,-467.0,-96.75,418.75,-334.5,5
116.0,7.25,3.5,-964.5,-265.75,-85.75,364.0,-293.25,5
-887.25,-51.0,-67.75,-1468.75,-218.5,-89.75,257.25,-212.5,5
-857.75,52.0,-147.25,-1498.0,-247.5,-78.5,206.75,-239.5,5
-25.75,320.75,232.75,-1365.75,-359.25,-70.0,106.5,-122.0,5
488.5,230.5,311.5,-1234.5,-624.75,-14.25,123.75,-62.25,5
565.25,64.75,56.5,-1205.75,-872.75,93.25,256.75,-176.5,5
660.0,101.25,345.25,-1017.0,-1050.0,214.25,298.75,-360.25,5
172.75,53.75,404.0,-561.75,-1064.25,459.25,391.0,-107.0,5
-755.75,61.25,186.0,-481.25,-849.5,640.0,350.75,53.75,5
-1653.25,-78.5,-158.25,-40.75,-859.0,646.5,314.25,-21.75,5
-1993.75,-172.5,-469.25,-95.75,-718.25,697.75,425.75,189.75,5
-1572.0,-154.0,-365.75,-69.25,-701.25,747.75,483.0,2.75,5
-1485.5,35.0,-843.5,119.5,-680.5,705.25,471.0,-103.25,5
-1522.5,370.0,-1921.0,86.75,-633.25,545.0,429.75,-39.75,5
-1434.5,547.75,-1373.5,88.0,-434.5,447.75,503.75,30.5,5
-1376.75,534.0,150.25,43.75,-135.5,334.5,528.75,-119.0,5
-1517.5,453.0,273.75,238.75,-89.5,205.25,614.25,-70.5,5
-1397.5,348.75,302.75,349.0,-64.75,77.25,715.75,17.0,5
-1391.25,259.0,365.25,607.25,-128.75,-168.0,714.75,-205.0,5
-426.25,308.0,906.75,732.5,124.5,-296.0,694.5,-258.75,5
683.25,176.25,1697.25,914.75,274.0,-437.0,615.75,-361.75,5
870.25,-58.0,1865.5,949.5,223.5,-542.5,523.0,-494.25,5
788.0,-77.75,1552.25,678.25,150.25,-621.75,382.25,-520.5,5
729.25,-194.0,1332.0,472.75,214.25,-670.5,283.75,-116.5,5
570.5,-246.75,1101.5,125.25,277.75,-603.5,262.0,170.25,5
134.5,159.0,561.0,-26.5,169.75,-503.5,255.5,195.0,5
97.25,787.75,80.75,-164.0,238.75,-439.25,240.5,212.0,5
-232.5,889.25,-144.0,-399.25,284.75,-438.75,253.25,230.0,5
-262.0,411.0,-481.25,-662.75,182.75,-444.25,259.5,153.5,5
-470.5,-75.5,-1049.25,-866.0,58.0,-482.25,282.75,113.75,5
-710.75,-581.75,-1444.0,-832.5,117.5,-575.0,379.5,198.5,5
478.5,-667.0,-1588.75,-870.75,307.5,-655.0,442.5,162.0,5
1231.75,-484.75,-1664.0,-904.25,403.0,-693.0,250.25,106.0,5
1394.25,-352.25,-1713.0,-464.0,240.0,-661.25,13.75,47.75,5
1689.25,-289.75,-1743.75,-365.0,183.0,-542.25,46.75,153.75,5
1983.75,-158.75,-2016.25,-335.0,94.5,-378.5,-37.0,28.0,5
1826.25,173.25,-2046.5,-112.75,11.0,-129.75,-33.75,-74.5,5
1817.25,431.25,-1977.75,-335.5,32.0,62.25,15.0,-54.5,5
1165.5,453.25,-1400.0,-332.0,-160.5,131.25,-17.75,-295.0,5
-511.0,367.75,-57.0,-174.0,-609.5,-110.5,-120.5,-603.75,5
-1558.75,-98.5,575.25,621.0,-329.0,10.25,-786.75,3.0,5
-1275.75,-834.5,366.75,914.75,182.5,478.5,-1086.75,331.5,5
-1293.5,-536.0,663.75,733.75,-40.25,90.75,-473.5,-88.0,5
-1923.0,139.25,1018.75,374.5,-318.5,102.5,-469.25,343.0,5
-1707.0,-16.25,809.25,439.25,-552.5,87.25,-460.25,265.25,5
-1770.5,50.5,884.5,390.75,-1184.25,-137.5,-228.25,184.5,5
-1624.25,59.0,346.0,223.25,-1133.75,-73.25,-287.25,128.75,5
-814.5,44.25,-68.0,-56.25,-702.75,-258.25,-123.0,97.5,5
168.0,-206.5,-230.5,-223.5,-339.0,-183.5,-77.75,112.0,5
573.25,-35.5,-174.0,-213.0,-352.75,-176.75,43.5,-59.0,5
496.25,288.5,-239.0,-10.25,-715.0,-146.0,-11.0,-36.5,5
508.25,539.75,-459.0,40.25,-1157.0,-208.25,-7.5,-262.75,5
512.75,568.25,-456.25,96.5,-1456.25,-154.75,-17.75,-282.0,5
586.75,385.25,-497.25,-4.5,-1451.5,-60.0,15.25,-337.5,5
148.5,253.0,-276.0,-112.75,-1226.25,-48.75,80.5,-184.5,5
195.75,43.0,-70.25,-51.5,-1000.25,-74.25,17.5,10.0,5
400.25,75.5,260.0,10.25,-825.5,-95.25,25.75,109.0,5
579.0,94.0,545.25,14.25,-817.25,54.75,8.0,180.25,5
675.75,97.0,632.75,-74.25,-791.75,94.75,51.0,166.0,5
807.75,51.5,505.5,-59.5,-856.75,152.5,197.5,201.25,5
743.75,117.25,228.5,-23.0,-1058.75,258.25,419.0,226.75,5
434.75,153.0,85.5,-23.0,-1209.25,666.75,416.25,266.75,5
257.0,95.0,-16.5,-25.0,-1352.75,755.5,322.0,179.0,5
-144.0,56.25,0.75,-58.5,-1325.75,284.25,266.25,221.25,5
-555.0,10.5,60.75,-117.0,-1179.25,-294.0,301.25,325.75,5
-910.5,21.25,136.5,-173.25,-725.0,-827.25,346.0,315.0,5
-1120.5,22.25,184.5,-202.25,-282.25,-810.0,289.25,288.0,5
-1197.75,55.75,214.75,-111.25,3.0,-569.0,157.5,277.5,5
-1186.25,86.5,220.5,-28.25,368.75,93.25,-40.75,200.25,5
-1100.5,125.75,269.25,-5.75,439.0,565.25,-73.25,163.25,5
-996.25,104.75,327.75,30.25,344.25,649.75,27.75,193.75,5
-861.75,68.25,356.75,31.75,224.75,444.0,35.25,149.0,5
-835.75,125.25,390.75,53.0,295.75,263.0,-156.5,118.0,5
-724.75,195.0,258.5,65.5,622.0,229.25,-302.75,121.0,5
-566.25,294.25,-113.25,30.25,644.25,230.25,-379.0,130.25,5
-392.75,369.5,-679.75,-16.0,576.0,170.0,-437.75,90.75,5
-336.5,489.25,-1119.75,-72.25,408.5,135.25,-298.25,170.0,5
-294.25,510.75,-1152.0,-40.5,398.0,116.5,-100.75,245.0,5
-174.5,296.25,-1120.5,-58.5,416.75,92.0,-60.75,154.25,5
-125.5,204.25,-1098.25,-97.25,362.5,140.25,-72.0,98.75,5
-111.25,198.75,-1017.25,33.5,477.5,144.0,-142.0,91.25,5
-73.0,-13.25,-383.0,158.0,582.75,191.75,-336.0,93.0,5
63.0,-209.0,216.75,104.0,720.0,196.25,-475.75,76.5,5
202.25,-130.25,778.25,-124.5,685.5,177.5,-262.75,111.75,5
304.5,145.25,1095.75,-389.75,708.25,98.75,130.0,114.5,5
288.75,411.5,1207.5,-603.5,659.5,-9.25,147.5,74.75,5
260.25,485.25,1235.25,-501.0,679.0,-130.5,27.75,74.5,5
264.0,344.25,1207.25,-231.75,492.75,-339.25,146.5,38.5,5
191.75,178.25,1109.75,-200.25,327.5,-570.75,134.5,-51.75,5
117.5,52.75,926.0,-125.75,353.0,-741.25,-26.25,-80.5,5
-4.25,-409.0,634.0,32.5,492.0,-813.0,-169.0,-53.5,5
-91.25,-737.75,278.0,-16.5,531.0,-989.0,-238.25,17.0,5
-117.75,-902.5,-32.25,28.0,384.25,-992.75,-175.0,131.75,5
-151.75,-1006.0,-287.75,33.5,272.25,-937.75,-148.25,106.0,5
-174.5,-901.75,-633.5,-75.75,230.25,-944.0,91.0,-18.25,5
-212.0,-840.5,-672.0,-126.75,60.25,-976.0,586.5,-86.75,5
-248.75,-500.75,-457.25,-239.0,-96.0,-994.5,878.0,-172.0,5
-194.25,-275.0,-373.25,-256.5,-223.0,-936.0,854.75,-249.75,5
-203.5,-201.25,-156.75,-363.75,-405.5,-413.75,764.25,-229.5,5
-242.0,1.5,-5.75,-412.5,-285.25,127.0,527.25,-232.5,5
-39.0,-31.75,-10.5,-211.75,109.75,634.75,120.75,-231.5,5
38.25,-36.75,-84.75,-249.75,199.0,1060.75,-97.75,-276.5,5
-172.5,139.75,-223.75,-303.5,97.5,1057.75,6.0,-363.0,5
-447.5,220.0,-301.5,-293.0,21.75,1059.0,182.75,-497.0,5
-585.0,318.5,-262.75,-296.25,-33.75,1068.0,172.5,-536.75,5
-384.25,287.25,-124.5,-182.0,4.5,1101.25,75.0,-335.75,5
-9.0,354.75,42.5,-134.0,-44.5,1102.5,-80.5,-388.0,5
-150.25,469.0,111.75,-82.5,88.5,1154.5,36.5,-464.0,5
-426.25,320.0,-68.75,150.0,649.5,1272.0,24.75,-185.5,5
356.75,-125.5,-651.25,580.25,1185.25,1344.5,-316.5,103.0,5
1281.25,-363.5,-1181.75,645.25,1157.25,1292.75,-251.5,87.0,5
1296.0,-295.5,-1236.25,451.75,871.75,1198.25,13.25,-103.75,5
1395.75,-185.0,-1214.75,215.5,552.25,1079.25,-2.5,-236.25,5
1475.0,-86.0,-375.25,83.5,430.25,1036.0,-163.75,-126.75,5
1489.5,-268.75,808.75,276.0,509.25,1076.0,47.5,18.25,5
964.75,-263.25,899.0,408.0,447.75,1060.75,134.0,-80.5,5
351.0,-169.25,830.25,557.0,488.75,1053.0,-181.0,-218.75,5
173.0,-173.0,770.0,490.75,432.25,718.0,-251.25,-255.75,5
-170.5,-193.75,891.25,470.5,527.0,-188.25,-106.25,167.0,5
-627.25,-362.5,662.0,547.75,709.5,-1053.75,261.75,532.5,5
-1049.75,-291.25,376.75,455.25,652.0,-1106.25,467.5,612.5,5
-1080.75,-130.0,33.25,495.25,687.5,-1114.0,319.75,726.75,5
-985.75,-55.5,-332.0,424.0,654.75,-1144.0,490.5,615.25,5
-846.25,34.75,-675.5,291.0,557.5,-1169.25,535.25,570.0,5
-31.75,-99.0,-827.0,281.0,562.25,-1159.25,441.25,634.0,5
568.5,-420.25,-717.25,99.25,262.0,-1152.75,690.25,655.25,5
609.75,-436.25,-593.0,-240.25,-107.75,-1204.25,672.0,574.0,5
-549.5,-336.75,-513.5,-312.5,-238.0,-1129.0,696.75,272.25,5
-1507.5,-186.5,-242.5,-319.5,-397.25,-735.5,664.75,-220.5,5
-1803.0,90.5,59.25,-309.25,-539.25,-347.5,550.75,-922.0,5
-2132.25,643.0,311.5,-561.75,-778.0,32.25,710.5,-1192.0,5
-1261.25,890.75,404.75,-391.5,-444.0,256.0,501.0,-623.75,5
287.25,682.0,474.0,-353.5,-471.75,-5.25,546.5,-654.75,5
511.5,883.0,547.0,-759.25,-691.5,-506.75,534.25,-560.5,5
1026.0,685.75,42.25,-627.75,-383.25,-799.0,162.0,123.25,5
1523.0,376.0,-523.25,-598.25,-312.0,-899.25,-15.0,468.5,5
1938.0,-6.0,-714.75,-76.0,421.75,-541.75,-350.0,890.5,5
922.75,-388.75,-723.5,244.75,415.5,-101.75,-356.0,710.5,5
14.5,-108.25,-581.0,111.5,7.25,-60.0,-303.25,524.25,5
-117.0,-186.25,-502.75,241.0,-189.5,-242.0,-223.75,606.75,5
-666.0,109.25,-310.0,-98.75,-911.5,-456.75,55.75,473.75,5
-1275.75,312.25,16.0,-118.25,-1167.75,-572.5,32.0,9.5,5
-1402.75,-74.0,170.0,289.25,-866.5,-659.75,-312.0,281.25,5
-1207.5,-703.0,-286.5,779.25,-457.0,-658.0,-513.5,1245.0,5
-800.5,-742.25,-796.75,816.75,-589.0,-591.25,-411.25,1140.0,5
-670.0,-680.5,-801.75,778.5,-665.5,-513.75,-525.25,900.75,5
-388.75,-666.5,-497.5,805.75,-426.75,-491.75,-574.0,810.25,5
-230.5,-592.0,768.5,835.25,-56.25,-505.25,-620.75,329.25,5
-176.75,-526.75,1057.25,779.75,214.5,-528.25,-603.25,-246.5,5
-553.25,-336.75,1076.0,601.25,242.75,-481.75,-240.75,-787.5,5
-1081.5,-262.0,1180.75,545.75,148.25,-438.25,-46.0,-758.5,5
-1041.25,-234.0,1060.0,361.0,-197.25,-433.0,210.75,-581.75,5
-549.75,-183.5,369.5,133.75,-425.75,-289.75,419.5,-516.0,5
-156.75,-114.5,-483.0,-22.0,-559.25,-97.5,525.75,-566.0,5
-51.0,-16.25,-969.5,-181.25,-690.25,103.25,469.25,-163.5,5
-159.25,27.75,-979.0,-251.5,-945.5,344.75,190.25,-15.0,5
-236.25,77.5,-826.5,-298.0,-1378.5,668.0,211.0,-127.0,5
172.75,128.0,-682.25,-380.25,-1525.5,956.75,192.0,-134.5,5
406.5,184.75,-276.0,-432.25,-1296.75,1063.25,136.0,-210.75,5
472.5,263.75,213.25,-532.75,-929.0,976.5,90.0,-597.75,5
294.75,444.0,706.0,-694.0,-568.25,804.25,232.0,-777.75,5
146.5,438.25,862.75,-586.0,177.75,834.0,352.25,-556.25,5
291.0,226.25,904.5,-290.25,636.75,887.75,52.75,-479.0,5
164.5,33.25,881.25,-60.0,912.25,827.0,-397.25,-357.75,5
72.75,-86.75,147.5,45.5,1155.0,705.75,-518.5,-313.25,5
-65.5,-106.25,-512.75,89.5,1093.5,595.25,-382.25,-493.75,5
-68.0,-135.5,-580.5,158.0,1267.75,503.0,-326.0,-439.25,5
-152.25,-29.25,-737.0,159.5,1322.5,410.75,-241.0,-237.0,5
-255.25,57.0,-1147.75,202.25,1040.25,377.5,-261.75,-366.25,5
31.0,-0.25,-925.0,156.5,732.75,389.0,-205.5,-119.25,5
-58.0,-50.0,-163.0,13.5,459.25,405.75,-243.0,153.5,5
-580.25,-6.5,190.5,-184.0,445.25,367.25,-313.75,-370.5,5
-352.5,324.75,-252.25,-513.0,626.75,342.0,-72.75,-561.25,5
188.25,47.5,-31.25,55.5,1138.75,575.0,-183.0,1.5,5
1382.0,-541.5,374.5,585.75,603.0,742.0,-291.75,45.75,5
748.25,-345.75,829.75,120.75,27.5,655.5,-37.5,-220.75,5
604.75,-177.75,548.75,309.0,447.0,728.5,304.0,-65.75,5
908.75,-328.5,501.25,208.75,347.75,669.0,820.0,-163.5,5
1077.5,60.75,447.0,23.5,-5.5,508.5,980.5,-46.75,5
1085.75,-67.0,24.5,185.0,-299.5,365.25,832.5,-169.0,5
851.0,259.75,1.25,-163.25,-368.0,331.5,225.25,-248.75,5
807.75,229.25,-106.5,-178.25,-36.25,391.5,-578.0,-175.0,5
234.0,256.25,-332.25,-300.75,496.0,320.5,-1378.25,-130.75,5
-141.75,97.75,-410.5,-132.5,1193.5,313.0,-1385.25,-27.5,5
-486.25,215.75,98.25,-358.25,1073.5,83.5,-390.0,-339.0,5
-1008.25,765.0,994.75,-794.75,891.0,-437.75,9.0,-575.0,5
-1537.25,901.5,1753.0,-839.75,1102.75,-511.5,-35.0,-616.0,5
-1763.25,795.0,1420.0,-814.5,1343.5,-196.0,-362.5,-599.75,5
-1757.75,598.25,1226.75,-763.0,627.0,-117.75,-411.25,-615.75,5
-1568.0,603.0,1056.25,-678.5,33.0,110.25,-654.25,-469.25,5
-414.25,428.75,-197.5,-655.5,-131.5,244.5,-573.75,-456.5,5
-2558.5,391.25,-705.75,-664.5,-37.75,323.25,-562.0,-249.25,5
-2513.0,174.25,-723.0,-506.25,133.75,338.0,-516.75,-262.75,5
-2329.25,233.5,-688.25,-355.5,80.0,86.5,-467.5,-363.75,5
-1407.75,125.5,-826.75,-76.5,73.5,23.5,-533.0,-488.25,5
198.5,102.25,-958.75,9.0,49.5,96.5,-510.0,-513.75,5
374.5,13.5,-1141.0,95.75,404.75,338.0,-595.75,-331.0,5
816.75,-99.0,-720.5,82.0,733.5,473.75,-414.25,-249.25,5
1006.0,-66.25,-391.0,82.75,954.25,543.5,-310.5,-106.25,5
878.0,-208.25,-350.5,76.25,755.0,471.75,-313.5,-29.0,5
-919.0,-180.75,-593.5,80.75,173.75,198.25,-471.25,337.25,5
-656.25,-219.25,-769.25,183.0,-277.5,65.25,-427.5,456.0,5
-378.25,-236.0,-430.25,158.0,-397.0,82.75,-572.25,673.25,5
1507.5,-597.25,-589.5,467.5,40.75,458.0,-1074.0,1398.75,5
1512.75,-979.25,-648.5,749.75,-201.25,603.75,-1157.75,1361.75,5
1660.0,-846.25,-880.75,616.25,-659.5,383.75,-1040.0,1217.5,5
1296.75,-698.0,-769.0,493.25,-657.25,184.5,-849.5,1252.75,5
1357.0,-668.25,-108.25,524.75,-614.75,15.0,-655.25,1217.0,5
613.75,-560.0,251.25,480.75,-779.0,-218.75,-406.5,1086.0,5
-560.75,-448.25,399.75,481.0,-977.25,-210.75,-206.25,916.5,5
-595.0,-170.25,691.75,302.75,-1252.25,-215.5,104.25,817.5,5
-481.75,63.0,1059.5,219.25,-1059.25,12.5,190.0,808.25,5
-409.75,162.0,983.5,110.0,-929.5,208.5,311.0,569.0,5
-380.0,279.25,494.75,28.0,-1174.5,490.5,196.25,506.75,5
-410.25,267.5,92.25,39.75,-1162.75,590.25,129.5,462.0,5
-540.75,311.75,-31.0,-112.0,-700.75,405.5,112.0,292.5,5
-708.5,319.75,-272.75,-166.0,-539.0,207.0,-31.25,112.75,5
-321.75,341.75,-152.75,-241.75,-633.75,-89.0,36.0,-18.5,5
-24.25,251.25,-151.0,-322.25,-777.5,-425.5,192.5,-231.25,5
-289.5,194.75,-455.0,-483.75,-1099.0,-737.0,326.0,-366.5,5
-386.5,164.75,-440.0,-504.25,-1326.75,-903.0,228.75,-394.0,5
-714.5,82.25,-458.25,-360.25,-1470.75,-1056.0,257.0,-557.5,5
-881.25,15.75,-312.75,-56.0,-1335.5,-1148.25,279.5,-561.0,5
-1024.0,1.5,-3.5,22.25,-1390.5,-1324.5,332.5,-463.0,5
-823.0,18.5,111.25,-390.5,-1536.75,-1556.0,559.75,-410.75,5
-731.0,8.25,-1.5,-656.5,-1627.25,-1544.75,698.75,-544.0,5
-950.0,25.0,-5.5,-759.25,-1820.75,-1562.5,681.75,-664.0,5
-728.25,61.0,133.25,-697.5,-1763.25,-1492.5,570.5,-675.0,5
-169.75,121.0,154.25,-470.0,-1914.0,-1328.75,398.75,-645.75,5
480.0,120.5,69.0,-322.0,-1917.5,-696.5,123.5,-637.0,5
604.75,170.25,-59.75,-152.0,-1896.75,-305.0,-163.25,-705.75,5
673.5,241.0,-15.0,-15.0,-1910.0,-131.0,-348.25,-713.5,5
535.25,247.25,83.25,65.25,-1907.0,-95.0,-386.0,-685.0,5
155.0,239.5,151.75,164.25,-1839.0,-80.0,-593.5,-589.75,5
-329.0,267.75,147.75,163.25,-1723.25,-38.0,-702.5,-392.75,5
-481.0,251.75,42.0,62.5,-1849.25,62.0,-506.5,-175.25,5
-183.25,196.75,-33.25,-13.25,-1799.0,361.25,-120.75,82.0,5
-50.25,153.25,18.5,34.75,-1653.25,690.25,494.5,272.0,5
-67.0,122.75,262.5,125.75,-1429.25,849.5,735.0,289.0,5
105.75,172.0,475.25,151.5,-1354.25,989.0,712.25,234.75,5
479.25,183.0,399.0,134.75,-1462.5,1173.75,652.25,26.75,5
454.75,175.75,-11.5,60.75,-1438.5,1281.25,587.5,-218.0,5
330.75,127.5,-381.0,60.25,-1469.0,1317.75,569.25,-506.75,5
159.0,72.5,-261.5,40.75,-524.75,1265.5,455.5,-529.25,5
258.0,70.75,-117.25,-31.75,599.75,1071.5,407.0,-350.75,5
378.75,63.25,-77.0,-108.0,548.0,760.0,344.0,-335.0,5
344.5,115.25,-39.0,-140.75,619.25,460.75,280.5,-221.5,5
179.75,115.5,-103.5,-97.25,547.5,177.75,242.0,-51.25,5
-163.0,92.25,-31.25,-64.25,599.0,181.5,295.0,79.25,5
-170.25,110.0,55.0,83.5,820.25,340.75,313.5,230.75,5
-14.75,87.5,7.0,91.25,1173.0,330.75,277.0,390.5,5
201.25,58.5,-209.5,-1.25,1675.5,305.0,205.75,347.25,5
481.0,30.5,-504.0,-34.25,1894.25,181.75,142.75,236.75,5
435.25,33.25,-421.5,-91.0,1893.75,5.25,127.75,307.5,5
221.25,23.75,4.75,-103.0,1668.5,-44.75,-116.75,417.5,5
139.5,-65.5,491.25,-191.25,1178.25,-282.5,-278.0,477.5,5
-8.25,-186.5,697.0,-264.0,514.75,-598.0,-361.0,473.25,5
-36.25,-187.25,800.5,-242.5,160.0,-789.0,-610.0,444.75,5
-388.25,-134.75,823.75,-177.5,-53.0,-798.0,-696.0,496.75,5
-1025.0,-100.75,534.25,-179.75,72.0,-660.75,-674.25,586.0,5
-1320.5,-72.5,249.25,-123.0,907.25,-598.0,-628.5,600.5,5
-1194.5,-63.75,31.0,-18.25,1047.25,-634.75,-546.25,708.0,5
-733.25,-21.0,-118.0,-40.5,865.5,-726.25,-466.25,859.0,5
-213.5,17.5,-245.0,-15.75,-53.25,-790.25,-290.0,744.25,5
196.0,33.0,-269.0,23.75,-342.25,-855.0,-166.75,532.0,5
137.5,50.75,-260.0,105.0,1018.75,-942.0,-98.5,291.75,5
233.25,62.0,-354.75,197.5,1492.5,-988.5,-30.5,103.25,5
408.5,25.5,-308.75,206.25,1607.0,-1031.25,-51.75,52.5,5
437.25,-42.0,-289.75,148.75,1679.0,-1013.75,-88.25,29.0,5
530.0,-69.25,-688.25,118.75,1551.25,-858.0,-143.5,-123.5,5
471.0,-79.75,-812.0,182.0,1426.25,-696.0,-310.75,-438.75,5
324.5,-65.0,-354.25,178.0,1112.0,-598.0,-467.0,-352.75,5
123.5,-23.75,-82.75,129.25,950.5,-347.0,-402.75,71.25,5
-37.75,-16.0,112.0,61.0,838.0,219.25,-55.25,294.75,5
-169.25,-39.0,32.25,-56.25,1237.75,1011.5,279.5,408.25,5
-314.5,-47.0,-70.75,-104.25,1794.75,1130.0,291.5,517.5,5
-585.75,-43.25,68.0,-36.25,2217.0,1097.25,261.25,551.25,5
-388.0,-95.0,164.5,54.0,1838.75,1069.0,339.75,556.0,5
16.25,-159.0,341.5,107.25,1388.5,1123.5,487.0,531.5,5
155.25,-143.75,297.25,162.5,1081.25,1181.5,658.0,512.0,5
328.0,-85.5,291.0,189.5,838.75,1230.75,766.75,580.5,5
147.25,-66.75,305.75,219.25,379.75,1316.75,1011.0,614.25,5
328.0,-58.0,-116.25,171.25,168.25,1425.5,1318.25,581.0,5
891.25,-23.25,-323.0,76.0,456.5,1444.0,1446.25,578.75,5
1150.75,18.5,-185.25,46.75,612.0,1330.0,1487.0,528.5,5
1046.25,-34.0,-216.0,83.25,382.0,324.75,1367.75,436.0,5
667.5,-168.75,-85.25,196.5,-231.0,-847.0,1182.5,383.25,5
462.75,-130.25,86.0,248.0,-537.0,-972.5,844.5,331.0,5
152.0,8.25,144.25,220.25,-561.5,-1050.75,679.0,273.0,5
-174.5,-51.0,195.0,185.75,-660.0,-1125.25,814.25,194.75,5
-462.75,-203.0,120.25,162.5,-351.75,-1182.0,878.75,44.5,5
-756.5,-311.5,-81.75,127.25,-195.0,-1231.5,870.75,-50.75,5
-1037.0,-319.5,-383.75,89.5,-106.5,-1263.25,966.75,-67.5,5
-1203.75,-220.75,-333.5,44.25,-158.5,-1273.0,1117.75,-13.75,5
-926.0,-187.5,-116.0,3.5,-496.75,-1295.25,1439.25,48.5,5
-530.75,-121.25,-55.75,-52.0,-573.25,-1279.25,1733.25,-87.25,5
-164.75,12.0,-161.75,-86.0,-721.75,-1263.25,1783.75,-289.75,5
176.5,50.5,-370.25,-63.0,-789.0,-1265.75,1633.5,-467.75,5
446.75,26.5,-171.75,3.5,-768.5,-1251.0,1446.25,-665.25,5
474.0,-40.25,81.5,27.75,-636.5,-1171.0,1233.5,-736.0,5
440.25,-51.75,-11.5,-8.5,-192.75,-1006.5,1079.0,-696.25,5
510.75,-46.25,-135.5,15.25,121.0,-894.75,804.25,-730.25,5
544.25,-50.75,189.25,-17.75,463.5,-802.0,430.75,-692.0,5
446.25,-19.25,295.0,-27.0,329.25,-632.0,51.75,-670.5,5
337.75,-8.25,8.5,-61.25,229.5,-432.5,-230.75,-598.75,5
106.25,18.75,167.0,-118.25,207.0,-338.75,-336.75,-457.75,5
-312.5,39.0,419.75,-79.5,-30.75,-415.25,-352.75,-465.5,5
-354.5,56.0,467.75,-38.25,192.25,-522.25,-266.5,-450.0,5
-420.25,86.25,405.75,-18.0,185.5,-504.0,-240.0,-542.5,5
-953.75,46.5,326.5,-15.0,132.5,-382.75,-424.5,-536.75,5
-827.0,-4.25,214.75,37.0,190.75,-220.75,-868.25,-481.25,5
-810.25,-61.0,119.5,71.75,384.0,31.25,-1275.5,-536.0,5
-190.5,-170.25,-143.75,57.75,466.25,325.25,-1478.0,-595.75,5
492.5,-246.5,-203.25,66.0,152.0,621.75,-1623.25,-575.25,5
861.25,-208.5,59.0,71.0,-78.25,810.25,-1358.5,-533.75,5
1063.75,-86.5,10.0,25.25,289.25,827.75,-987.0,-634.5,5
988.0,31.25,-153.75,-44.5,697.5,895.25,-701.5,-560.25,5
856.75,61.75,-384.0,-94.25,845.25,950.75,-649.25,-489.25,5
573.0,74.75,-396.0,-89.75,456.25,1017.0,-779.25,-466.5,5
210.25,109.0,-345.5,-67.75,380.75,984.75,-796.25,-430.0,5
44.75,54.5,-354.5,-12.25,-89.25,927.0,-592.75,-491.25,5
-291.25,-95.0,-223.0,1.5,-519.75,903.25,-668.5,-499.0,5
-742.75,-140.5,-354.75,-24.75,-769.25,865.25,-568.25,-468.75,5
-516.0,23.0,-341.5,9.25,-1001.5,483.5,-271.5,-410.75,5
-221.25,89.25,-61.75,-9.5,-1097.0,122.25,-204.25,-380.75,5
-186.0,51.25,179.75,-46.0,-1094.25,43.0,-275.0,-410.0,5
-145.25,58.0,301.0,-88.0,-924.5,-8.0,-567.0,-382.75,5
