0,1,2,3,4,5,6,7,label
-443.5,238.0,-1013.0,230.5,1087.0,620.25,-601.25,23.0,6
-273.0,242.5,-1172.25,114.5,1631.25,426.75,-488.25,238.25,6
161.25,346.0,-1196.0,-41.25,1530.5,277.25,-440.75,566.75,6
322.0,435.25,-1323.5,-114.0,1169.5,140.5,-374.25,866.0,6
657.25,286.5,-1063.75,-183.25,1241.75,62.75,-315.75,668.25,6
894.25,23.75,-864.0,-230.5,1076.25,54.5,-281.75,644.75,6
804.75,-250.75,-626.0,-285.0,912.0,38.5,-280.0,529.5,6
24.75,-710.25,42.25,-251.75,709.0,87.5,-200.0,590.25,6
-423.0,-797.0,530.5,-221.5,851.5,142.5,-59.25,436.0,6
-391.0,-418.75,559.75,-288.5,6.5,113.75,-24.75,35.5,6
-311.25,-687.25,605.0,-322.75,-601.25,45.0,15.0,-59.5,6
-404.0,-767.0,680.0,-458.75,-1119.25,-0.25,41.75,-239.5,6
-337.75,48.75,669.0,-562.25,-1046.5,-23.0,46.5,-259.5,6
-359.25,446.75,540.75,-720.25,-659.25,-131.25,307.5,-44.0,6
-491.0,-161.0,91.25,-803.5,90.75,-250.5,257.75,358.0,6
-492.0,-519.5,-154.5,-745.5,651.0,-259.75,198.75,1021.75,6
-24.75,-78.75,-371.75,-685.0,1119.5,-275.5,189.75,1233.0,6
386.75,301.25,-639.25,-638.25,77.25,-322.25,21.0,1414.5,6
365.0,101.5,-807.5,-523.25,-817.0,-344.25,336.5,1484.0,6
669.25,180.0,-637.25,-383.25,-1079.0,-359.5,556.0,1624.25,6
838.5,745.5,-246.5,-365.75,-1217.75,-335.75,545.75,1727.5,6
615.25,966.0,114.75,-331.5,-1019.5,-308.75,632.25,1571.0,6
1147.5,908.0,218.0,-307.5,-685.5,-307.5,572.25,1303.0,6
1388.5,822.25,79.25,-261.25,-301.75,-291.25,506.0,848.5,6
1043.0,673.25,-40.25,-216.75,-463.25,-234.75,267.25,413.25,6
980.25,825.5,-149.75,-240.25,-996.0,-211.5,55.0,140.25,6
28.0,289.0,-271.5,-227.25,-1392.0,-178.75,-83.25,23.25,6
-1418.25,-646.75,-488.75,-223.25,-1965.0,-119.25,124.0,-243.75,6
-2016.5,-648.25,-661.5,-183.75,-2654.75,-63.25,550.25,-388.25,6
-1708.5,657.25,-644.75,-137.5,-2760.75,3.0,752.0,-402.25,6
-1213.0,1150.5,-532.25,-107.75,-2530.5,73.25,825.0,-415.75,6
-794.0,1144.25,-402.75,-50.5,-2517.75,126.25,739.25,-655.75,6
-285.25,1086.75,-299.0,-64.0,-3028.5,209.75,718.5,-824.5,6
-508.0,1072.5,-493.5,-87.5,-2516.0,284.0,602.5,-538.25,6
108.0,489.25,-673.25,-79.0,-1521.75,278.0,395.5,-226.75,6
1017.5,-615.0,-585.5,-28.75,-181.5,253.75,173.5,-95.75,6
1290.25,-778.75,-549.0,31.25,660.75,236.75,155.25,-224.25,6
1491.75,8.75,-353.0,9.25,1049.0,233.0,331.25,-488.5,6
781.75,-473.5,-127.25,24.5,556.25,287.5,281.5,-723.75,6
-198.25,-520.5,87.5,51.75,-579.25,336.5,410.5,-813.0,6
-646.0,205.0,260.25,44.5,-993.5,390.0,282.5,-729.25,6
-674.0,284.0,285.5,51.5,-1075.5,413.5,33.75,-735.5,6
-200.5,298.75,329.25,86.75,-1061.75,361.0,-32.5,-693.5,6
365.5,113.75,257.5,116.75,-1024.25,203.75,-25.25,-750.75,6
634.5,124.0,85.5,116.75,1143.25,-1.25,99.75,-924.0,6
505.25,449.25,2.25,102.75,1905.0,-80.25,37.5,-801.75,6
-451.0,-58.5,-25.0,77.75,1884.75,4.0,100.75,-486.25,6
-1183.0,-284.25,-166.0,66.25,1946.25,32.25,269.0,-174.5,6
-1137.0,291.75,-156.25,48.75,1571.0,184.5,183.75,198.75,6
-542.25,87.5,-40.0,34.75,1129.25,270.0,-172.25,489.5,6
-323.25,-162.5,16.5,18.25,467.75,221.5,-635.75,506.75,6
197.5,167.5,180.0,13.0,392.5,217.0,-911.5,415.0,6
437.25,57.75,326.25,15.5,249.75,91.75,-940.75,-6.5,6
540.25,-149.5,403.25,18.0,674.0,96.75,-936.5,-436.25,6
938.75,-164.25,357.25,-0.75,159.5,38.75,-870.25,-527.5,6
1353.0,-1.5,258.5,-40.5,-305.0,-26.0,-410.5,-522.75,6
1373.0,207.75,251.5,-58.5,158.0,-71.75,-159.5,-258.75,6
758.75,160.25,213.25,-74.75,-119.5,-148.0,-60.25,-145.5,6
116.0,-311.0,217.25,-45.5,224.25,-253.5,-280.5,-217.5,6
-739.75,-691.75,303.25,-8.0,1740.0,-366.25,-611.25,-50.75,6
-760.25,-371.75,221.25,47.25,2345.25,-269.75,-532.0,261.0,6
-874.0,-216.0,23.5,66.75,2193.5,-247.5,-588.5,227.75,6
-1294.0,-260.0,-18.5,39.0,2070.25,-293.5,-599.75,-122.25,6
-1266.75,-274.5,67.0,78.25,1875.25,-175.0,-588.5,-333.0,6
-1117.0,-218.0,87.0,81.25,60.5,7.5,-347.5,-106.5,6
-437.0,186.5,209.75,92.25,-556.0,-19.5,62.5,-198.75,6
-14.5,369.25,211.25,99.5,-816.75,-167.5,432.25,-443.5,6
150.0,366.5,-12.25,97.75,-927.75,-231.75,650.25,-574.25,6
153.0,139.5,-19.25,90.5,-924.25,-216.0,600.25,-520.75,6
-245.75,-516.25,-87.25,21.75,-55.75,-158.5,606.75,-213.5,6
-486.75,-708.25,-158.5,4.25,958.75,-170.0,664.75,-342.75,6
-414.0,-294.75,-149.0,6.0,1493.75,-176.0,702.75,-488.75,6
-344.25,-197.75,3.25,-199.0,825.25,-294.75,387.25,-228.5,6
85.25,140.25,144.5,-690.0,206.5,-844.5,-76.0,93.0,6
600.0,742.75,206.0,-619.25,592.25,-975.0,-185.0,137.5,6
324.25,621.5,106.0,-480.75,896.0,-840.0,-55.25,75.25,6
94.75,591.75,-144.5,-513.5,741.5,-825.5,39.25,149.75,6
-130.75,545.5,37.75,-437.0,257.0,-551.5,25.25,-35.25,6
-253.5,356.0,54.0,-128.5,-98.25,-297.75,-196.75,-139.25,6
-529.0,-81.25,65.75,622.75,1040.5,11.5,-378.0,-682.25,6
-1140.75,-699.5,120.0,1070.25,2042.0,835.0,-464.0,-1501.0,6
-1070.5,-953.75,93.0,969.0,2184.25,1135.0,-578.25,-1552.0,6
-863.5,-860.75,31.75,867.5,1711.25,990.25,-650.25,-1216.0,6
-743.5,-647.0,-145.25,786.5,1329.25,731.0,-598.25,-989.5,6
-322.25,-476.25,-96.0,647.25,851.75,611.75,-466.5,-545.5,6
384.5,-180.0,-131.75,585.5,339.5,387.25,-542.25,-26.25,6
905.75,-39.5,-150.0,422.5,-57.25,306.5,-600.5,410.0,6
857.0,64.25,-155.75,378.5,-488.0,106.0,-572.5,714.75,6
542.25,71.5,-128.25,263.25,533.75,20.0,-455.5,705.75,6
213.0,51.5,-136.75,163.25,1446.75,-11.75,-284.75,1111.5,6
437.75,326.75,-263.75,88.25,2176.75,-35.0,-315.25,1302.5,6
783.0,582.0,-433.5,15.0,2375.5,12.25,-632.5,1198.25,6
1104.5,380.0,-474.25,-14.25,2390.25,-52.5,-807.0,868.5,6
43.25,-185.0,-354.5,-84.25,1236.0,-125.0,-920.5,577.25,6
-1242.25,-637.25,-381.5,-124.25,316.25,-211.0,-905.75,771.75,6
-1447.25,-60.5,-358.75,-208.25,787.5,-246.25,-891.5,1474.75,6
-1225.75,453.75,-141.0,-521.5,87.25,-566.25,-905.75,2311.75,6
358.25,506.25,464.0,-992.0,-1071.75,-1198.75,-950.75,2597.5,6
1816.0,1047.5,1077.75,-925.5,-1023.5,-1130.75,-1094.0,2353.25,6
1424.5,867.25,1083.0,-828.25,-571.5,-1050.75,-797.0,2121.0,6
827.75,759.25,1167.5,-864.75,-195.25,-1178.75,-326.0,1984.5,6
600.75,758.5,1356.25,-729.25,-146.25,-795.5,-224.5,1714.5,6
-189.5,600.25,567.75,-695.5,166.75,-129.25,-370.0,1447.0,6
-150.75,552.25,-72.75,-426.0,1203.25,134.5,-663.0,1099.5,6
-946.5,126.0,-503.75,-142.25,1646.0,231.75,-850.25,1085.25,6
-1207.75,-104.5,-983.75,114.25,2017.5,439.5,-1032.0,941.75,6
-2032.25,-499.75,-252.25,518.0,1950.5,915.0,-1182.0,788.75,6
-2824.25,-893.5,562.0,761.5,1532.75,1301.0,-1376.75,361.5,6
-1514.5,-1079.5,1036.0,715.5,1081.0,1822.0,-1526.0,-416.0,6
116.5,-1048.0,1116.5,576.25,711.25,1930.75,-1616.5,-572.5,6
639.75,-961.5,790.25,521.5,1101.0,1358.25,-1606.75,-616.25,6
945.0,-865.5,615.75,482.0,1235.5,918.5,-1463.0,-674.25,6
1237.5,-574.0,-109.25,400.75,712.75,632.5,-1352.5,-644.75,6
1564.0,-396.75,-291.0,339.0,156.5,328.25,-847.75,-533.25,6
1890.0,-256.0,-454.0,433.25,-326.5,344.0,-620.0,-449.25,6
1705.25,-211.25,-1092.75,698.0,-379.25,402.75,44.25,-154.5,6
900.25,-90.5,-1595.5,844.75,-611.75,376.0,351.0,-178.5,6
-876.75,-68.25,-1978.75,529.0,-867.5,17.75,537.5,109.0,6
-676.25,346.0,-2066.0,-460.5,-1432.0,-450.0,968.25,426.0,6
-122.25,803.25,-1065.25,-599.25,-1514.5,-364.0,964.25,114.0,6
-321.0,705.25,-312.75,-406.0,-1769.5,-110.75,914.25,-412.75,6
-465.0,717.75,-1001.25,-492.75,-2297.75,-336.0,940.5,-624.5,6
-500.5,719.5,-459.75,-497.0,-1932.5,-587.5,910.0,-875.0,6
-802.0,476.25,998.0,-440.25,-1422.25,-540.75,1218.25,-837.75,6
-1003.25,452.0,1001.75,-453.0,-1196.5,-451.5,1701.25,-985.5,6
-1242.5,255.75,1056.0,-478.5,-1495.75,-464.75,1768.5,-1021.0,6
-1196.75,73.5,785.0,-609.25,-1665.25,-486.75,1458.75,-1122.0,6
-1248.25,34.5,-359.0,-379.0,-1314.5,-192.75,1086.75,-1184.0,6
-1170.0,82.25,-911.5,-196.25,-1225.0,-231.5,985.0,-1116.75,6
-669.0,22.5,-416.25,-110.25,-909.75,-350.5,788.0,-1118.0,6
801.0,-14.75,-500.75,-271.75,-738.75,-395.0,603.25,-1082.25,6
1042.5,-31.25,-803.25,-345.25,-427.5,-253.5,950.75,-1078.5,6
1431.25,-102.25,899.25,-283.5,-337.75,-26.75,1101.25,-962.5,6
1578.25,-103.0,1279.0,-215.25,-575.5,94.75,925.0,-788.25,6
1462.0,-275.25,1577.0,-225.5,-628.5,236.25,1303.0,-558.5,6
197.25,-403.5,830.25,-153.5,-789.75,195.25,1653.0,-519.75,6
-305.5,-364.75,-125.25,159.25,-1044.25,-17.75,1529.75,-826.0,6
-683.25,-479.75,551.25,622.0,-655.0,-93.25,1634.25,-1098.5,6
-1635.75,-860.75,-98.0,648.75,-154.25,-72.25,1665.5,-962.75,6
-1464.5,-684.25,-363.5,616.0,-272.0,-450.25,1085.0,-742.0,6
-1379.5,-466.25,-893.5,706.5,-903.75,-527.5,136.75,-529.0,6
-1580.5,-483.75,-1038.5,568.5,-1169.75,-325.75,4.0,-186.25,6
-1569.5,-297.0,-634.25,376.25,-1138.25,-127.5,38.75,25.75,6
-1647.0,-343.5,2111.0,315.5,-1271.5,161.5,22.5,258.5,6
186.75,-259.5,1783.5,267.75,-1334.75,86.5,-70.75,349.25,6
370.5,-194.75,714.75,276.75,-1149.5,57.25,50.5,393.5,6
366.5,-153.5,255.25,232.5,-1148.75,-116.0,725.0,444.0,6
411.75,-73.25,163.5,214.75,-1558.75,-369.75,1091.75,469.0,6
345.25,-24.25,-470.25,129.25,-1852.25,-545.0,1300.5,574.5,6
744.25,128.25,-1630.75,72.0,-1954.0,-738.25,1080.25,692.75,6
682.5,104.75,-1441.25,-59.25,-1970.25,-811.25,603.0,843.5,6
-367.0,136.5,-1208.25,-127.75,-1694.25,-831.0,-75.5,958.75,6
-740.25,174.5,-769.25,-51.5,-1410.75,-571.5,-664.5,1073.25,6
-927.25,193.75,-122.0,-112.75,-1263.75,-321.5,-721.5,1192.25,6
-814.0,99.75,885.5,-110.5,-1184.25,-310.5,-584.75,1289.25,6
-225.25,70.75,1540.0,-105.5,-903.75,-374.0,-613.0,1304.5,6
148.75,103.0,1361.0,-131.0,-792.0,-328.5,-167.0,1242.75,6
257.25,114.5,-589.75,-98.0,-1088.5,-185.0,211.5,1224.75,6
461.0,154.5,-1544.5,-73.5,-1356.25,-168.75,283.75,1243.5,6
-174.0,159.0,-835.25,-141.5,-1584.25,-105.0,318.5,1066.25,6
-944.5,235.25,-352.25,-414.75,-1730.25,-75.5,-284.25,941.0,6
-678.75,242.0,-382.25,-708.0,-1762.5,-9.75,-760.25,935.5,6
-32.0,303.5,-50.5,-761.25,-1734.75,21.25,-1085.5,814.25,6
-231.25,379.0,209.0,-613.5,-1571.0,-58.0,-1362.75,667.0,6
186.25,321.25,314.75,-585.75,-1359.25,-118.25,-1331.75,450.75,6
991.75,227.5,-240.75,-653.0,-1001.0,-61.0,-1241.75,167.0,6
513.75,116.75,91.0,-632.5,-633.25,139.0,-1211.5,-216.0,6
281.75,12.5,173.75,-549.75,-437.0,233.75,-1233.75,-577.25,6
235.25,-21.0,270.25,-357.5,-303.5,206.25,-907.75,-968.5,6
211.5,38.5,209.75,-164.25,-235.5,145.75,-827.5,-1369.25,6
104.25,-51.5,690.0,43.5,-44.0,393.5,-826.25,-1493.75,6
33.5,-90.5,1135.25,105.25,153.75,695.0,-795.25,-1368.75,6
496.75,-40.25,1496.25,126.75,324.25,737.5,-792.5,-1392.0,6
130.0,-145.25,1179.0,116.75,488.25,920.0,-833.5,-1336.75,6
-960.75,-183.75,552.0,-52.75,366.5,1026.0,-928.0,-1120.25,6
-823.75,-132.25,3.0,-267.5,183.5,947.5,-806.25,-1077.0,6
-596.25,-15.0,-600.25,-464.75,6.25,906.25,-666.0,-1091.0,6
-334.5,104.25,-804.0,-578.5,-273.25,939.75,-531.0,-1170.25,6
-9.75,169.75,-1406.0,-423.0,74.75,1034.0,-456.75,-1436.5,6
-187.5,316.75,-1114.5,127.25,736.0,1129.25,-442.0,-1592.0,6
-607.0,620.0,-763.75,198.75,663.25,1200.0,-427.5,-1507.0,6
-538.5,467.0,-518.25,183.75,-157.25,1228.5,-433.0,-1442.75,6
-517.5,56.75,-123.25,381.0,268.25,1052.25,-392.25,-1069.25,6
-268.75,172.5,-79.0,377.75,319.0,763.5,-375.0,-536.75,6
-176.25,125.5,161.0,604.75,231.75,438.25,-354.75,-365.25,6
-124.0,-16.75,138.5,513.0,-261.25,87.5,-244.5,-457.25,6
-131.75,-433.5,88.5,475.25,-290.0,70.75,53.5,-570.25,6
-532.25,-795.5,50.25,795.25,-61.75,120.75,304.25,-573.0,6
-623.5,-814.25,-30.5,1228.5,-340.5,172.75,-82.0,-724.25,6
-666.5,-1089.5,-34.0,1451.5,-304.0,528.25,-684.0,-782.0,6
-591.0,-1120.75,302.0,1302.0,-264.0,1033.25,-891.75,-647.5,6
-459.25,-958.5,933.25,1116.0,-291.75,1238.75,-849.75,10.5,6
-179.75,-740.5,1328.75,807.25,-147.5,1052.25,-785.75,673.0,6
-314.75,-507.0,1430.75,387.0,41.5,928.5,-557.0,439.0,6
-605.25,-11.0,1665.25,164.5,258.75,643.5,-855.5,10.75,6
-525.75,489.75,2067.5,4.75,470.25,118.5,-1123.25,-152.75,6
-19.5,726.0,2085.5,-305.25,667.25,-76.75,-866.0,-230.5,6
170.5,501.25,985.0,-657.25,867.75,204.25,-787.25,-481.25,6
-36.75,734.75,-229.75,-709.75,1070.0,699.5,-154.5,-185.25,6
289.75,1117.25,-1021.0,-574.25,1197.5,964.0,-140.75,381.75,6
939.0,1027.5,-1528.5,-11.75,1257.75,865.25,62.5,500.75,6
1367.5,1001.0,-1623.5,905.75,1350.0,500.5,369.5,485.75,6
741.5,984.25,-1517.5,920.5,1476.0,235.25,-136.25,199.0,6
31.75,571.0,-1133.25,942.0,1586.0,223.25,38.25,244.25,6
-97.5,-161.25,-1178.25,979.5,1648.75,267.75,159.0,376.25,6
-259.25,-929.25,-993.0,961.75,1690.5,228.0,-143.0,287.75,6
-245.0,-1016.25,-917.0,-21.25,1604.5,-4.0,-450.75,131.25,6
-68.25,-841.25,-1199.25,-1099.25,1370.25,-208.0,-657.0,-53.5,6
150.5,-547.25,-1090.75,-1144.75,1098.0,-216.75,-721.25,384.75,6
-24.75,-573.75,-855.25,-1142.25,889.0,-241.25,-635.25,1027.75,6
-235.25,-280.0,-432.5,-1147.75,587.25,-341.75,-501.25,1301.75,6
-40.75,-379.75,-175.25,-1184.75,324.25,-480.5,-153.75,1474.5,6
226.0,-715.75,162.5,-1169.25,110.5,-626.0,16.75,1661.5,6
158.0,-501.25,870.75,-1103.0,43.75,-678.5,-156.0,1655.5,6
332.5,203.25,982.75,-1078.5,-60.25,-702.75,-87.25,1523.0,6
480.5,547.5,936.5,-546.75,-86.0,-690.5,-135.75,1421.0,6
444.75,31.75,990.5,903.0,-39.5,-727.0,-280.5,1410.75,6
480.25,-253.5,674.0,903.0,-190.0,-805.5,42.25,1470.5,6
960.75,166.5,129.25,823.75,-367.5,-892.0,424.5,1334.75,6
1634.0,322.75,-278.75,777.0,-191.25,-1181.5,220.25,929.5,6
1770.25,469.25,-515.5,138.25,-127.0,-1370.75,-120.0,750.0,6
1274.25,943.5,-650.75,-1105.25,-229.75,-1397.5,-619.0,1392.75,6
492.75,926.0,-820.75,-1097.75,271.5,-1518.75,-1352.0,1996.0,6
-124.75,366.75,-496.0,-1120.25,663.0,-1352.0,-1284.5,2229.5,6
-288.5,-491.25,-159.5,-1161.25,754.75,-1054.5,-1256.25,2149.0,6
453.25,-865.25,-110.75,-1147.25,1075.5,-797.5,-1099.0,1652.0,6
521.0,-975.0,-162.0,-1115.75,1420.0,-72.0,-602.25,666.0,6
570.0,-968.25,-170.75,945.0,1985.5,78.5,-267.25,-142.5,6
223.75,-827.0,273.5,962.75,2041.25,131.25,-211.5,-1047.0,6
-1030.5,-295.75,670.75,911.0,1792.75,567.25,-339.25,-1453.0,6
-871.5,399.25,854.75,894.25,1747.5,485.25,-263.25,-1410.25,6
-913.0,485.5,713.75,468.25,1778.75,395.0,-268.0,-828.25,6
-1004.75,84.25,605.75,-682.75,1832.5,827.5,352.5,-208.25,6
-997.75,-236.25,616.75,-1260.0,1734.25,946.25,832.0,108.5,6
-930.75,-566.5,367.5,-820.75,1805.25,361.75,772.25,726.0,6
-854.0,-206.0,255.5,780.75,1742.25,143.25,695.25,341.75,6
-785.25,292.75,522.75,805.5,1448.75,187.0,380.0,-23.0,6
-222.0,1046.5,1002.25,799.0,1382.0,118.25,198.0,-411.5,6
1398.5,1189.25,825.0,-1216.25,1215.0,289.0,362.75,-934.5,6
963.0,1313.25,124.25,-1268.0,1043.5,223.75,831.0,-695.25,6
-59.0,1304.75,-230.75,-1214.25,1176.75,267.75,927.5,-37.0,6
-21.0,1212.25,-240.0,-1191.0,785.75,21.5,482.0,427.5,6
237.5,1115.0,-704.75,-1235.0,238.5,-328.0,187.75,452.25,6
220.5,827.0,-1208.5,-1242.0,71.25,-649.75,-82.0,318.25,6
149.5,839.75,-1058.25,816.25,76.75,-717.5,-44.75,86.5,6
656.5,847.75,-962.0,863.75,-60.0,-472.5,297.25,178.75,6
850.25,-125.5,-910.5,935.25,16.0,-271.0,657.25,329.5,6
616.0,-799.25,-917.0,1039.0,-173.25,98.25,823.25,173.25,6
156.25,-594.0,-670.0,1067.75,-314.25,718.0,471.0,-191.25,6
-33.0,-664.25,-430.0,499.5,-652.75,865.75,342.5,-609.5,6
-100.25,-890.5,-275.5,-219.75,-1427.75,146.75,595.0,-897.75,6
206.25,-1371.0,22.0,-851.75,-1557.5,-1049.0,894.25,-906.5,6
650.25,-1772.75,248.75,-833.75,-1158.75,-1116.25,803.5,-825.0,6
62.0,-1964.25,485.5,-824.0,-954.0,-1135.0,354.5,-1081.75,6
-204.25,-1999.25,514.75,-837.5,-1020.25,-1135.25,-131.5,-1425.75,6
-241.75,-1367.75,438.25,-891.5,-921.75,-1132.5,-564.75,-1461.5,6
-254.25,-604.25,248.5,1106.5,-905.5,-728.5,-488.75,-1261.5,6
29.5,141.0,144.0,1084.25,-744.0,286.5,-178.75,-1155.5,6
240.5,459.0,241.5,1075.0,-595.75,584.5,-108.5,-1224.0,6
369.0,611.0,519.75,1101.0,-1059.25,596.0,-160.25,-1281.5,6
213.5,673.75,822.5,1097.0,-1812.75,911.5,56.25,-1087.0,6
-81.0,597.25,985.5,1015.5,-1632.5,903.0,118.5,-598.5,6
-292.25,610.75,938.25,911.0,-1111.75,644.0,176.25,-211.5,6
-112.75,566.0,794.25,887.25,-1220.25,476.25,194.5,13.0,6
49.0,636.25,433.75,956.75,-1334.5,304.75,53.75,93.25,6
83.5,557.75,129.5,1008.0,-1039.0,337.25,65.25,-235.0,6
1.25,457.25,125.0,1095.0,-567.25,288.25,-85.5,-89.5,6
31.75,440.5,577.75,1104.25,-575.5,343.75,-51.25,154.5,6
391.75,486.5,558.5,1101.75,-690.5,343.5,29.5,-183.5,6
661.75,436.25,10.5,935.0,-466.0,323.5,177.5,-246.75,6
604.25,307.75,-625.75,664.0,-4.0,344.5,210.0,-375.5,6
281.75,268.0,-934.75,370.0,194.25,303.0,310.5,-392.5,6
45.25,186.0,-1022.25,156.0,272.25,316.5,441.75,-163.75,6
-194.5,71.5,-1075.75,113.0,340.0,282.75,301.5,-97.0,6
-328.25,15.0,-1171.25,32.5,380.5,359.0,49.5,-85.25,6
-351.25,-60.25,-1205.75,42.75,636.0,421.25,-127.0,-1.0,6
-239.5,-132.0,-786.25,47.25,676.75,464.75,68.5,98.5,6
-33.0,-91.0,-327.5,-61.25,627.0,547.75,110.0,-26.5,6
141.0,-64.0,-173.5,-164.25,600.75,495.0,188.5,-138.0,6
227.25,-14.5,-129.5,-244.75,586.25,323.0,386.25,-216.5,6
220.5,68.5,-3.0,-260.25,795.0,170.25,300.5,-267.0,6
275.75,150.0,145.75,-391.75,898.5,46.25,189.75,-399.5,6
137.0,210.5,109.5,-483.75,871.75,87.75,651.0,-538.75,6
-30.25,182.25,80.0,-462.0,607.75,115.25,1144.75,-411.75,6
-147.75,166.5,40.5,-606.25,551.0,-19.75,1164.0,-345.25,6
-20.0,90.5,-132.5,-514.0,1466.75,200.75,1174.0,-455.75,6
247.75,-27.5,3.5,-260.75,1465.5,522.0,407.25,-351.5,6
241.5,-35.25,148.0,-247.0,1056.0,551.25,-741.25,-220.0,6
320.75,-101.25,188.25,-275.0,1146.5,593.0,-741.5,43.75,6
408.25,-117.25,187.25,-694.75,565.75,461.5,-733.25,249.75,6
447.5,-97.5,166.25,-849.5,918.5,511.75,-706.0,115.75,6
413.25,-172.0,547.25,-697.25,899.25,509.5,-672.5,317.75,6
231.0,-219.0,747.25,-716.25,786.25,351.75,-158.0,586.5,6
-1.5,-302.75,1039.0,-587.5,665.5,293.0,660.0,709.0,6
-213.5,-241.75,1175.75,-652.5,312.75,98.25,883.5,728.0,6
-143.0,-132.75,912.75,-712.75,53.75,-37.25,725.5,798.5,6
-181.5,-68.25,101.0,-632.0,-409.5,-191.0,501.75,938.0,6
-556.25,-19.75,-325.5,-552.75,-577.25,-348.25,290.25,942.5,6
-1025.0,-65.25,-867.5,-434.75,-1034.5,-525.5,676.5,820.5,6
-1253.5,-126.75,-913.75,-321.75,-1495.5,-601.25,1032.0,623.25,6
-1518.25,-218.25,-838.5,-293.75,-1271.25,-583.0,558.5,562.0,6
-1628.5,-308.0,-826.0,-217.75,-673.25,-515.0,109.0,531.75,6
-1313.25,-289.75,-1289.75,-299.25,-144.5,-282.5,-475.0,617.75,6
-645.75,-149.5,-1766.75,-337.0,178.5,153.75,-956.5,700.5,6
166.5,12.0,-1276.25,-333.75,-84.0,532.5,-787.75,649.75,6
794.75,86.0,111.0,-221.75,-148.25,919.5,-76.25,649.0,6
1117.0,162.25,792.25,-87.25,-545.0,746.0,239.0,725.5,6
1273.5,299.5,688.25,-174.25,-1587.5,540.25,342.25,814.25,6
1144.75,399.0,530.0,-199.75,-1928.25,57.5,661.0,816.0,6
860.25,341.0,623.0,-74.0,-1208.0,-841.5,818.0,745.0,6
917.0,-10.0,1264.25,222.25,-768.5,-1411.75,233.75,845.25,6
1094.75,-13.0,1562.25,25.75,-1436.75,-1650.25,-214.5,1108.0,6
1078.25,403.5,533.0,-180.25,-1793.5,-1980.5,136.5,1231.75,6
895.75,614.75,-1004.25,-178.75,-1465.5,-1954.5,-129.75,1260.5,6
734.5,661.0,-1373.5,-194.75,-975.0,-1798.5,-513.25,1067.75,6
874.25,650.25,-1354.5,-240.75,-545.0,-1351.5,-554.5,685.5,6
833.0,721.5,-215.0,-324.5,-253.0,-986.5,-582.0,244.5,6
547.75,609.5,1131.5,-373.75,342.5,-657.5,-709.5,-353.25,6
20.25,374.5,1300.0,-463.5,615.5,91.5,-460.5,-808.25,6
-600.5,96.0,1600.75,-351.75,696.5,738.75,1187.0,-1073.0,6
-940.5,-186.0,1686.75,-152.0,-424.5,1016.75,1170.0,-1194.0,6
-1368.25,-366.5,1603.0,26.5,-1506.75,1288.5,1233.25,-1368.25,6
-1671.75,-282.5,1953.25,192.0,-1717.0,1202.75,1308.0,-1502.75,6
-1394.25,-12.75,2461.5,369.75,-1270.0,970.0,1106.0,-1601.75,6
-853.5,147.5,1764.75,532.0,-4.25,789.75,988.75,-1495.25,6
-275.75,292.25,967.25,653.75,334.5,563.5,667.75,-1583.75,6
171.25,289.5,798.75,798.25,310.25,420.5,1238.25,-1726.25,6
207.75,295.75,452.5,837.75,305.75,389.0,1765.25,-1801.5,6
231.5,339.25,-371.0,769.25,521.5,442.5,1165.0,-1748.5,6
303.25,455.75,-1797.0,770.25,682.25,525.25,449.5,-1475.0,6
62.5,321.0,-1788.75,718.5,1037.5,722.75,-531.25,-1368.75,6
-769.5,-395.0,-1641.5,598.25,1284.25,857.0,-1285.25,-1089.75,6
-1417.0,-1149.25,-1647.25,534.5,1571.75,1098.0,-516.25,-670.0,6
-2044.5,-1385.25,-1447.25,744.25,1258.25,1201.75,-463.75,-698.5,6
-2304.25,-1449.0,-1228.0,877.75,718.25,1193.0,-344.0,-896.0,6
-1831.0,-1378.0,-373.0,758.75,386.5,1205.0,-36.0,-661.0,6
-908.75,-1241.5,433.75,641.25,229.25,1390.0,-661.5,-427.0,6
836.75,-1078.75,-278.5,435.0,247.25,1489.25,-1665.5,-384.75,6
1916.75,-895.5,-1372.25,280.5,367.25,1437.25,-1889.5,-145.5,6
1832.5,-552.75,-809.0,312.5,735.5,1295.25,-1628.25,-267.75,6
1578.25,-363.0,90.5,228.75,983.25,1009.5,-1049.75,-191.25,6
1220.25,-69.75,35.25,225.0,710.25,718.5,-751.0,-116.75,6
913.0,232.0,1.0,257.75,448.75,161.5,-446.75,390.5,6
506.75,380.5,-24.75,335.5,371.75,-496.25,375.5,650.5,6
562.25,477.25,2.25,248.25,78.5,-844.75,1205.5,812.5,6
796.0,492.5,664.75,169.25,-313.25,-783.5,1276.0,976.0,6
825.0,650.75,443.5,117.5,-545.0,-555.5,1271.0,1111.25,6
994.75,760.25,-175.5,27.0,-630.75,-598.0,603.0,82.25,6
342.0,753.0,-347.5,-12.5,-780.25,-518.0,-1117.25,-546.25,6
-198.5,612.25,-763.25,-44.75,-948.5,-365.25,-1469.0,-312.5,6
-992.0,451.25,-1198.75,-24.25,-1157.25,-457.25,-1298.0,-232.0,6
-1082.75,369.25,-1092.0,-103.0,-1913.75,-265.75,-1235.5,-185.75,6
-1062.5,203.0,-1009.0,-71.75,-2015.0,20.0,-632.25,-220.25,6
-1226.5,-4.75,-802.75,-78.5,-1717.75,32.75,369.25,-315.75,6
-1204.25,-88.5,-531.75,-146.25,-1780.25,107.0,299.0,-291.5,6
-1555.5,-163.5,-394.0,-168.5,-2201.25,302.5,179.5,-151.0,6
-1408.25,-210.0,-337.75,-198.75,-2175.25,320.5,87.5,746.25,6
-1070.0,-103.0,-443.25,-142.75,-2037.25,308.5,-60.75,1768.75,6
-503.25,-15.25,-688.5,-43.0,-1929.5,282.25,488.5,1927.5,6
115.75,40.0,-652.75,-18.75,-1671.25,240.75,608.25,1985.5,6
-28.5,62.75,-498.25,-84.5,-1410.75,268.25,32.0,2110.25,6
-51.25,28.0,35.5,-133.75,-1369.0,234.75,-34.5,2251.25,6
-31.5,-10.25,-716.5,-173.0,-1431.0,188.25,108.75,2387.0,6
-620.5,1.0,-704.25,-189.75,-1136.25,211.5,-1028.25,2367.75,6
-1147.75,-46.25,389.25,-261.75,-874.5,176.0,-2191.0,2216.75,6
-1390.0,328.5,947.25,-405.25,-762.75,153.25,-2074.75,1931.0,6
-1493.75,877.0,1410.0,-405.25,-663.25,148.75,-1985.75,1634.0,6
-1370.75,364.75,1092.25,-320.25,-613.0,67.5,-1686.25,1270.5,6
-1380.5,-679.25,645.5,-297.0,-503.25,94.5,-218.25,1004.25,6
-1319.5,-1131.0,-18.0,-257.25,-407.25,205.0,152.25,872.5,6
-1306.75,-1124.0,-743.75,-191.25,-303.0,153.5,-1096.5,902.5,6
-1246.25,-1116.0,-1361.5,-189.0,-303.5,63.75,-1154.0,922.0,6
-1098.75,-832.25,-1657.75,-219.25,-3.25,106.75,-1098.75,880.75,6
-645.0,-256.0,-49.75,-282.75,417.75,281.5,418.5,977.75,6
77.5,134.0,316.75,-413.0,751.0,476.25,1252.25,1168.5,6
460.5,328.5,70.75,-528.25,851.0,401.5,1387.5,1403.5,6
1004.0,455.5,129.25,-632.75,751.75,345.25,1496.5,1341.5,6
982.25,556.0,210.25,-723.75,891.0,409.0,1561.5,1213.0,6
554.75,1006.5,331.25,-738.75,1323.25,354.0,1325.0,1170.25,6
-27.75,906.0,449.25,-660.5,2255.25,386.25,842.75,1097.0,6
-46.25,384.0,-367.0,-533.75,2351.75,410.75,453.0,854.0,6
-81.25,70.75,-919.5,-424.75,2216.5,372.5,626.0,576.5,6
-105.75,-260.5,-1136.75,-339.5,1844.0,346.0,1101.25,224.25,6
13.25,-327.0,-854.0,-308.5,1553.0,347.0,1263.25,-271.25,6
69.25,-91.75,-703.25,-238.25,995.75,388.0,1127.0,-767.0,6
117.75,25.5,-657.25,-95.25,814.25,436.5,980.75,-807.5,6
124.75,-77.0,-476.5,86.0,1123.75,431.25,700.0,-764.0,6
193.0,-184.25,-175.75,237.5,1308.5,308.0,530.0,-774.25,6
217.25,-180.5,-114.25,311.5,1199.25,62.25,427.0,-867.75,6
242.5,-180.5,-316.75,337.25,1014.0,-95.75,297.5,-1038.75,6
231.0,8.0,-438.5,369.75,937.75,47.5,158.25,-1246.75,6
269.5,276.5,-422.75,439.25,1007.75,114.75,181.0,-1386.75,6
345.75,378.25,-406.25,494.75,1175.0,58.25,331.5,-1456.5,6
392.0,124.75,-356.0,619.5,1537.5,16.75,309.0,-796.5,6
362.75,-111.25,-215.5,780.0,1808.75,-56.75,380.25,3.25,6
173.0,128.25,-344.0,854.25,1863.25,-24.0,480.75,540.25,6
18.5,534.75,-391.25,928.25,1846.0,15.0,586.75,527.5,6
-36.75,815.75,-315.0,1046.0,2036.5,73.75,660.5,464.25,6
110.5,714.5,-163.75,1109.0,2160.75,41.75,668.75,452.75,6
182.5,186.5,50.75,1055.0,2071.5,48.5,754.25,394.5,6
147.0,-267.0,297.75,967.25,1835.75,51.0,708.75,349.0,6
82.75,-572.0,563.0,831.75,1680.25,-112.25,574.0,468.75,6
-70.75,-1000.0,542.25,700.25,1606.75,-119.25,514.5,502.5,6
-88.75,-1115.25,384.25,599.0,1712.5,-98.25,566.0,515.75,6
-4.5,-741.0,141.25,474.25,1684.0,-45.25,755.5,563.0,6
65.75,-174.5,-41.0,337.75,1350.0,-82.5,770.0,501.5,6
107.75,132.75,-92.75,176.5,1099.75,-233.25,856.25,377.75,6
183.5,510.75,-168.25,1.5,1243.25,-270.5,979.25,269.5,6
199.25,817.0,-44.5,-177.5,1298.5,-292.75,810.5,200.0,6
111.75,673.5,305.75,-338.0,970.25,-132.75,596.5,232.5,6
-20.25,387.0,731.5,-406.5,283.75,73.25,534.25,219.75,6
-189.75,-658.5,698.25,-433.25,314.25,177.75,592.0,212.75,6
-285.0,-1152.25,664.25,-453.5,658.0,149.5,596.0,-67.0,6
-55.75,-1110.5,575.0,-434.0,798.0,71.75,562.5,-1010.0,6
201.0,-879.0,-55.75,-426.5,1354.25,-46.25,478.25,-1975.25,6
52.5,-384.25,-510.25,-449.0,1319.25,-182.0,314.5,-2202.25,6
-125.25,351.5,-868.75,-460.0,1092.5,-235.25,179.25,-2304.0,6
-102.5,974.0,-1180.75,-459.5,877.0,-333.25,18.25,-2246.0,6
102.75,955.0,-929.75,-472.25,740.5,-445.75,-206.0,-2210.75,6
294.75,508.0,-308.5,-378.0,713.25,-662.75,-322.5,-2299.5,6
409.0,9.0,166.25,-273.5,810.25,-721.5,-280.25,-2249.0,6
563.25,-182.5,298.5,-339.25,908.0,-645.75,-309.25,-2075.0,6
595.25,195.0,-119.75,-374.0,972.5,-459.5,-404.25,-1835.5,6
513.25,489.5,-493.0,-510.75,1008.75,-40.0,-621.5,-1625.25,6
302.75,421.5,-775.75,-814.5,948.25,287.0,-907.75,-1548.5,6
-81.0,362.5,-945.75,-989.5,363.5,519.25,-1222.5,-1452.5,6
-347.25,978.0,-786.25,-1015.25,-833.75,593.5,-1584.75,-1295.0,6
-192.0,1115.25,-757.25,-659.75,-1084.0,658.75,-1666.0,-1172.25,6
418.0,1125.5,-495.75,-120.25,-1153.75,657.5,-1540.75,-1120.75,6
681.75,637.25,-293.0,188.5,-1366.5,625.0,-1405.25,-1025.75,6
462.25,-884.5,79.0,149.25,-1808.0,620.25,-1329.0,-283.75,6
-50.0,-874.75,454.75,80.75,-1996.25,568.5,-1320.5,604.5,6
-388.25,-906.0,691.0,123.25,-2000.0,542.0,-1334.75,1107.5,6
-371.25,-914.75,639.0,-151.0,-2003.5,231.75,-1402.0,1292.0,6
-351.0,-941.25,390.75,-461.25,-1611.5,-21.5,-1251.0,1574.5,6
-69.25,7.5,548.75,-607.75,-1316.5,-110.25,-1065.5,1848.25,6
952.25,615.0,711.0,-630.0,-1272.25,-208.25,-778.5,2058.25,6
897.5,1065.25,729.75,-496.25,-1131.25,-244.5,-215.5,2120.25,6
-217.75,1075.25,667.25,-422.75,-1200.25,-344.75,440.5,2096.5,6
-808.5,1079.5,527.5,-375.75,-847.0,-449.5,325.25,2043.75,6
-801.0,1085.5,319.0,-359.75,-120.75,-535.5,201.5,1807.75,6
-848.75,1096.0,294.25,-284.25,758.0,-567.0,159.25,878.25,6
-959.75,790.75,221.5,-128.5,629.0,-576.25,81.0,-174.75,6
-1062.75,4.25,421.75,-137.75,797.5,-586.25,81.75,-720.25,6
-1134.75,-412.75,979.25,-241.5,864.25,-611.75,213.5,-1044.75,6
-119.25,-373.25,1096.5,-309.25,729.25,-610.25,393.0,-1122.25,6
877.75,-137.75,1167.25,-293.75,657.75,-543.25,546.0,-960.75,6
695.75,-67.75,1106.25,-229.5,558.5,-448.5,597.0,-919.25,6
440.25,-262.25,68.25,-138.75,543.75,-353.0,483.25,-1097.25,6
488.75,-440.0,-1058.0,-171.5,691.25,-291.0,332.5,-1178.75,6
18.25,-454.25,-1157.5,-215.25,784.25,-297.75,252.75,-1093.5,6
-453.25,-92.5,-1202.0,-211.75,812.25,-340.0,302.25,-1103.5,6
-103.0,22.5,-1197.0,-284.0,880.5,-384.0,458.75,-1047.75,6
646.75,-241.75,-1117.75,-259.75,894.25,-394.25,-388.5,-774.75,6
1074.75,106.25,-1036.0,-284.75,775.25,-372.0,-1416.25,-716.75,6
1070.5,813.75,-1030.0,-265.25,384.25,-304.5,-1490.75,-624.0,6
1044.0,811.75,-1018.0,-156.5,163.75,-111.0,-1440.5,-518.0,6
-508.0,-181.25,-417.75,-100.25,-28.25,101.25,-1360.5,-565.0,6
-1116.75,-1053.0,200.25,-12.0,-489.25,255.25,-1230.25,-454.75,6
-862.5,-888.5,248.25,-239.25,-1459.0,127.75,-686.75,9.5,6
796.5,-394.0,348.75,-324.0,-1852.75,287.0,-464.75,23.0,6
1497.0,-258.5,629.25,-128.0,-1805.5,448.0,-313.75,-438.0,6
1263.5,-171.5,437.25,-30.25,-1823.0,459.75,-168.75,-377.75,6
1088.0,-68.75,213.0,11.75,-2096.0,526.75,-86.25,-276.0,6
93.75,257.25,448.75,163.75,-1965.5,-41.75,69.0,-256.75,6
-515.25,873.25,948.25,168.0,-1820.5,-1049.5,-308.25,-444.0,6
-557.25,1328.5,939.0,358.0,-1585.5,-863.5,-796.5,-715.5,6
-493.25,1186.75,983.0,455.0,-1738.75,-853.5,-759.75,-670.0,6
261.25,720.25,1007.0,711.0,-1764.0,-763.75,-946.75,-703.25,6
223.75,113.25,990.75,897.25,-1684.0,-739.5,-1088.0,-735.0,6
-445.0,-250.75,-969.5,977.5,-1411.5,-663.25,-1089.5,-827.25,6
-1006.25,-14.5,-990.75,956.75,-1154.0,-602.5,-1143.0,-800.25,6
-1178.25,453.0,-984.75,921.75,-909.5,-556.75,-1144.75,-409.5,6
395.75,788.5,-661.5,885.5,-856.75,-175.25,-963.5,75.0,6
464.75,418.75,-68.0,807.25,-900.25,-89.25,-724.75,630.0,6
327.75,117.0,-596.0,850.0,-662.0,-255.25,-249.0,779.0,6
201.25,-30.75,-1023.25,811.5,-328.75,-240.0,135.5,-74.0,6
-106.25,-332.5,-1041.75,789.0,94.75,258.75,-102.25,-1372.0,6
-703.5,-658.0,-1028.5,721.75,276.75,890.0,-137.25,-1900.25,6
-852.0,-859.75,-140.5,678.25,506.25,1442.0,241.5,-1982.5,6
-255.25,-125.25,-847.0,630.5,513.5,1498.75,281.5,-1626.5,6
-414.25,685.5,-1111.25,519.0,378.5,1587.25,401.25,-975.0,6
349.5,615.5,-1170.5,339.0,693.0,1643.0,625.5,-43.0,6
890.75,-91.25,-1210.75,180.25,982.75,1508.0,1032.5,136.75,6
782.75,-615.5,-1237.5,172.0,1405.75,1255.25,1324.0,191.5,6
574.75,-1252.5,-555.0,211.5,1314.5,807.25,1225.5,-45.0,6
129.25,-1123.0,61.0,264.25,604.25,514.5,1080.5,-272.25,6
495.25,-1037.25,219.0,371.5,521.5,523.5,846.5,-506.25,6
454.75,-1191.25,652.75,445.0,942.0,788.0,458.0,-389.5,6
-712.75,-1558.0,773.0,425.0,806.5,967.0,394.75,-95.5,6
-629.0,-1404.5,1093.25,436.0,-329.25,906.0,441.75,110.0,6
-504.5,763.5,1102.5,422.0,-708.75,777.5,485.25,182.75,6
-784.25,725.5,961.5,318.5,-863.0,521.75,574.0,329.5,6
-574.5,858.0,724.75,139.0,-837.25,143.75,660.25,358.75,6
-633.25,-774.75,957.25,-55.0,-253.75,-91.75,818.25,587.25,6
-698.75,-511.25,1104.75,-188.0,388.25,-178.5,1004.25,773.5,6
-715.25,389.25,1153.0,-299.75,1010.0,10.75,1079.0,803.25,6
-584.0,364.0,1154.0,-157.0,1420.75,175.75,1013.0,788.0,6
296.25,-850.0,1125.25,-123.25,1551.0,278.5,863.5,361.75,6
1035.75,-1302.0,1113.5,-660.5,1187.5,256.25,938.25,-330.0,6
1130.25,-1146.5,374.5,-785.0,1241.0,283.0,892.5,-598.25,6
932.0,-741.5,284.75,-773.25,1326.5,246.75,910.5,-457.0,6
911.75,-156.75,94.0,-982.5,1286.0,111.0,785.5,419.0,6
889.25,517.5,150.0,-971.0,1240.25,23.5,628.0,843.75,6
1293.0,1173.75,-5.0,-1142.0,417.0,-68.5,479.75,776.5,6
1437.0,1310.25,-43.75,-1298.25,19.0,-66.75,394.25,1073.0,6
640.0,1378.25,-21.0,-1171.5,339.25,40.25,212.75,764.0,6
-599.25,516.0,-27.25,-817.5,428.5,67.5,72.75,622.0,6
-808.0,-436.5,65.0,-595.75,435.25,-20.75,386.0,466.75,6
-717.0,-627.75,106.0,-402.5,1263.75,-79.0,556.25,280.75,6
-570.25,-609.5,98.75,-334.75,1550.75,-214.75,660.5,279.75,6
-713.75,546.25,59.0,-233.5,1256.5,-313.75,678.25,286.0,6
-614.75,1178.5,218.5,-243.25,1503.25,-396.0,520.0,424.0,6
-637.5,1219.25,355.25,-234.0,2464.25,-335.25,280.0,127.5,6
-1521.25,799.75,567.75,530.0,3321.75,-12.75,-25.75,-377.0,6
-1430.0,-76.5,509.25,972.5,2865.75,128.75,-128.0,-570.0,6
-942.5,-268.25,287.5,794.5,708.75,-32.75,-106.75,-190.5,6
-1272.75,-293.75,54.75,942.25,-107.5,93.0,-205.75,79.5,6
-1545.0,-324.25,-297.5,1110.25,-313.0,203.5,-301.0,-239.25,6
-1298.75,128.5,-265.0,594.25,-758.25,126.75,-299.25,-401.25,6
-1100.75,-94.5,-178.75,52.75,-866.75,5.75,-344.5,550.0,6
-72.5,149.5,-128.75,-825.0,-232.0,-263.25,-417.5,1097.25,6
154.0,446.0,-15.0,-759.0,199.5,-210.25,-591.0,847.25,6
-145.5,169.0,45.75,28.0,798.5,291.75,-786.5,497.75,6
-573.5,-339.25,-45.5,404.75,56.25,604.75,-759.5,-70.25,6
-447.5,-253.0,-137.0,355.75,-1599.0,429.5,-646.0,-185.0,6
-97.75,-50.0,233.0,250.25,-2273.0,493.25,-687.5,-648.0,6
-172.25,10.75,445.75,490.25,-1705.0,455.75,-727.25,-830.0,6
85.25,361.0,48.75,568.25,-2084.75,436.5,-868.0,-807.0,6
57.5,246.25,-498.75,941.0,-1801.25,462.75,-895.25,-635.75,6
239.75,132.0,-568.5,916.5,-2258.75,414.5,-736.5,-415.5,6
594.25,-59.25,-321.75,659.25,-2540.75,507.5,-497.0,-336.75,6
968.25,142.25,65.25,358.5,-3163.0,498.5,-49.25,-476.0,6
1173.25,321.5,72.75,194.5,-2931.0,572.25,271.25,-736.0,6
333.25,382.25,-170.75,-218.75,-2335.5,608.0,260.5,-645.75,6
-844.5,386.75,-62.25,-413.5,-1709.0,694.5,108.0,-663.75,6
-860.75,294.0,-36.75,-598.0,-865.25,568.0,7.0,-818.0,6
-705.25,341.5,205.5,-810.0,46.75,402.0,44.0,-1220.0,6
-276.5,301.25,113.25,-755.5,252.5,324.5,152.25,-1658.0,6
5.5,309.75,-77.75,-484.0,-3.25,79.0,17.75,-1210.75,6
-164.75,117.75,-190.0,-58.25,-98.25,-136.5,-123.0,-1042.5,6
-583.5,-105.25,-418.25,-78.25,-215.0,-352.75,-113.75,-951.5,6
-576.25,-337.25,-458.25,297.75,-1014.75,-506.75,-171.75,-729.5,6
-473.75,-252.25,-702.75,467.25,-2235.0,-660.25,-44.0,-285.25,6
-383.25,-166.25,-624.75,168.25,-2500.25,-776.0,193.5,57.75,6
-227.75,-229.0,-291.0,68.25,-2593.75,-839.0,420.0,498.0,6
-141.25,-135.25,-22.0,-141.5,-1375.5,-796.75,556.0,736.5,6
-251.5,-89.25,250.25,-352.25,1368.25,-815.75,644.5,679.75,6
-342.25,-16.75,74.25,-426.0,1778.0,-896.75,588.0,560.0,6
-235.0,-49.0,-413.5,-360.25,-52.25,-962.5,365.75,632.75,6
-272.5,-126.25,-609.25,-238.75,-848.5,-1060.75,227.5,549.25,6
-377.25,-199.25,-461.75,-435.5,-1438.75,-1084.5,186.75,347.25,6
-266.75,-153.25,-188.25,-697.75,-1181.0,-1087.0,200.75,454.25,6
22.0,-161.25,-57.75,-676.25,-475.0,-966.75,76.5,384.5,6
46.0,-207.0,-353.25,-500.5,-590.75,-767.0,122.0,491.0,6
133.25,-111.5,-1230.5,-143.75,-111.0,-673.75,83.75,519.0,6
377.0,-48.0,-1210.25,-44.25,1672.5,-528.25,-261.25,407.5,6
318.5,-99.0,-538.0,6.0,1305.25,-300.5,-497.0,377.5,6
463.0,-320.25,340.5,-88.0,1074.0,-276.75,-394.5,328.25,6
1128.0,-332.75,812.0,-358.75,254.25,-328.5,-138.5,311.25,6
1020.25,-202.0,952.5,-316.0,295.75,-116.5,164.5,332.0,6
887.0,-149.75,947.0,-144.25,2034.75,32.5,416.75,555.5,6
-32.75,-87.5,963.75,-265.75,2059.0,-26.25,158.5,615.0,6
-655.25,-71.25,694.0,-515.5,498.0,-59.5,-189.25,677.25,6
-452.5,-82.5,207.75,-355.5,-1145.5,-34.75,-367.0,675.0,6
171.5,-119.5,-94.25,-421.0,-1606.5,194.25,-269.5,735.0,6
727.75,6.0,-39.25,-511.0,-424.25,491.75,201.5,792.25,6
441.5,127.0,-343.5,-506.5,500.5,400.75,606.5,659.25,6
512.25,130.5,-524.0,-558.25,117.5,177.25,709.75,769.75,6
435.25,153.75,-442.75,126.75,64.0,117.5,403.25,957.0,6
256.75,185.0,-551.75,497.5,-321.5,37.0,33.75,1294.75,6
194.75,95.0,-48.75,40.25,-261.0,138.25,-296.0,1388.0,6
790.5,-104.5,888.25,147.0,265.5,392.0,-455.25,1284.75,6
1450.0,-100.25,1318.5,-94.5,-187.75,558.25,-191.5,1450.5,6
843.5,-104.5,600.25,0.5,31.5,589.5,-168.0,1355.25,6
410.25,-323.75,-822.75,638.75,-213.5,255.75,-284.75,1122.75,6
191.75,-393.5,-985.5,961.25,-922.75,146.5,157.0,875.5,6
318.25,-270.25,-1074.75,1600.5,-982.25,89.25,674.25,803.5,6
31.25,-238.0,-249.0,1045.75,-831.25,-74.5,478.5,571.5,6
-132.5,-392.75,717.0,280.5,477.25,-158.25,61.75,346.5,6
-132.5,-532.5,822.75,-129.75,1050.25,-259.0,-51.75,258.5,6
10.5,-476.25,943.25,-548.75,743.25,-35.0,75.25,227.0,6
-877.0,-357.25,1009.5,-76.5,850.25,52.0,398.0,154.5,6
-1384.0,-370.25,900.75,974.25,1099.25,111.25,236.5,94.25,6
-1261.5,-206.75,-1022.75,1223.25,877.5,347.25,-628.25,93.75,6
-506.25,159.75,-907.75,-79.25,-61.0,596.25,-1473.75,-62.0,6
-494.25,356.25,-960.5,-285.25,-546.75,585.75,-1601.0,-175.5,6
-1145.5,497.25,427.0,-480.75,-659.25,60.75,-1374.25,-380.75,6
-799.75,518.5,-574.5,417.0,-350.25,-405.5,-432.5,-633.0,6
-1021.0,562.0,-1057.0,847.5,236.0,-560.75,268.0,-843.5,6
-1244.75,601.0,95.5,855.25,658.25,-544.75,877.25,-906.25,6
-1142.75,556.5,792.0,1009.25,790.75,-376.5,1463.5,-882.0,6
250.0,630.25,779.5,474.0,666.75,-536.75,1704.75,-958.5,6
811.5,693.75,871.25,665.5,574.0,-718.75,1513.75,-1135.5,6
1218.75,740.25,992.25,803.25,475.25,28.75,1312.75,-1195.25,6
2219.0,757.75,1006.5,383.25,641.75,959.5,1439.5,-929.75,6
2125.0,850.5,864.25,-1097.5,539.5,536.0,2072.5,-762.5,6
2153.0,1044.75,74.5,-1040.25,340.0,-873.5,2335.75,-611.75,6
567.5,1141.5,-966.0,-690.0,581.0,-1119.25,-314.5,-578.25,6
45.0,654.0,-1451.0,-250.5,1102.5,-459.75,-923.5,-844.5,6
-1625.75,-155.5,-975.25,215.25,876.0,434.75,-1241.0,-765.5,6
-1733.25,-232.0,-762.25,-219.5,527.0,856.0,-1371.25,-746.75,6
-882.75,-100.0,-589.0,-735.5,654.0,903.75,-1138.25,-900.5,6
-607.75,-231.25,-500.5,-899.25,574.25,679.25,-525.0,-674.75,6
-488.0,-152.25,-600.25,-1840.75,-176.5,363.75,-309.75,-561.25,6
-616.0,105.25,752.5,-2251.25,-1186.5,416.0,-214.25,-499.0,6
-29.25,371.5,1316.25,-2296.75,-1462.5,614.5,264.25,-349.75,6
476.5,388.5,860.75,-2540.5,-1633.5,502.5,566.75,-128.5,6
1049.75,277.5,642.25,-2509.5,-1820.75,40.25,594.75,-23.5,6
1661.25,186.75,725.0,-2317.5,-1535.75,-636.0,1106.75,224.0,6
513.25,25.75,-649.0,-930.25,-1458.5,-818.5,1707.75,580.0,6
262.0,-180.5,-902.25,607.5,-1168.0,-375.75,1850.75,408.0,6
-1778.25,-202.5,-451.75,891.0,-870.5,-136.0,2016.25,317.0,6
-2699.5,-297.25,131.0,870.5,-904.25,104.25,2260.25,296.5,6
-2705.0,-356.0,614.25,921.0,-982.0,304.5,1160.0,152.25,6
-2557.25,-399.25,837.25,1086.5,-1372.5,493.5,400.5,214.25,6
-2036.5,-402.5,863.75,1143.5,-1521.25,309.25,353.75,46.5,6
-899.5,-342.0,324.25,475.75,-1444.0,-187.75,525.25,24.25,6
545.25,-257.0,-492.25,-798.75,-1361.25,-562.75,573.25,-67.25,6
789.25,-196.25,-706.5,-763.75,-948.0,-829.75,904.0,-357.25,6
-199.75,-233.0,-547.75,-393.75,-396.0,-738.0,1847.25,-516.0,6
-548.5,-301.0,-137.5,648.25,396.25,-494.5,2505.0,-670.25,6
-499.0,-389.5,414.5,923.75,1036.25,167.5,2731.75,-729.0,6
530.5,-395.75,499.25,3.75,1482.0,711.5,2761.5,-694.75,6
781.5,-439.5,144.25,-632.25,1761.75,678.75,2743.0,-387.75,6
1676.25,-665.0,-293.25,-604.25,1464.75,615.25,1987.5,184.75,6
1960.5,-734.5,-41.0,-314.0,1386.5,462.75,848.75,281.5,6
1260.5,-565.75,911.5,171.75,1204.5,122.0,343.75,-314.25,6
28.25,-431.0,1197.0,545.5,452.25,-343.5,199.25,-145.75,6
-2008.0,-422.25,996.25,1074.75,136.5,-232.0,761.75,216.0,6
-2851.25,-338.0,812.0,876.5,343.25,202.25,1027.25,355.25,6
-1917.75,-268.75,363.5,1280.0,-87.5,77.0,561.25,568.75,6
-1228.5,-88.0,46.0,1640.5,-684.75,44.25,822.5,636.5,6
-761.0,-91.0,-87.25,1440.0,-775.5,-158.75,1431.25,519.25,6
-493.75,-73.5,-360.5,1321.5,-767.0,-356.0,1371.5,521.0,6
-724.5,0.25,-542.75,1021.25,-1257.75,26.0,484.0,772.25,6
-544.75,91.0,-447.5,991.0,-1489.75,167.25,-388.25,1055.0,6
-591.0,198.0,-339.0,931.75,-1901.25,373.5,-852.0,941.75,6
-857.75,167.0,-254.75,378.5,-2112.5,463.25,-748.0,744.25,6
-974.5,161.25,-53.0,54.25,-2144.5,377.75,-1113.25,740.5,6
-1008.0,76.75,212.5,13.75,-2269.5,6.5,-911.75,849.75,6
-1296.75,45.0,307.0,-156.25,-2160.0,-615.25,-862.25,793.0,6
-917.75,101.5,232.25,427.25,-1702.25,-1133.5,-509.25,965.25,6
-532.25,188.5,124.5,969.0,-1204.75,-1724.0,-460.5,1257.5,6
-531.75,235.25,-27.0,579.5,-1146.25,-1619.0,-743.25,1329.75,6
126.75,172.5,-282.0,49.5,-1039.25,-1141.75,-1512.0,1303.0,6
-205.75,115.5,-791.75,-792.75,-932.5,-461.0,-2023.75,1332.25,6
-947.25,125.75,-1413.5,-558.25,-720.0,466.5,-1758.0,963.25,6
-750.0,122.75,-1406.0,516.0,-586.75,633.75,-859.5,-730.25,6
-819.75,121.25,-515.0,864.0,-471.0,1060.75,648.25,-718.5,6
240.25,93.0,581.25,899.0,-217.75,1275.0,843.75,-697.25,6
860.5,66.75,861.25,1020.5,-200.25,999.25,830.25,-521.75,6
-588.25,136.75,267.75,581.25,-175.0,917.0,883.25,55.75,6
-805.25,115.25,-1232.25,-194.75,-135.75,1001.25,200.75,463.25,6
-562.0,109.0,-1557.75,-221.25,-124.0,1337.25,-1219.0,419.5,6
-364.25,14.0,-1543.5,-638.25,-112.75,1359.25,-1934.5,-39.75,6
1147.5,-77.75,-434.25,-1062.0,-84.75,1095.25,-1141.25,-454.75,6
1399.0,-92.75,508.5,-1190.75,-77.0,848.75,-1034.25,-820.0,6
1327.75,-162.0,581.0,-942.75,-66.75,673.5,-1100.25,-960.5,6
1891.0,-189.5,647.25,-1262.0,-54.5,536.0,-1282.75,-1120.75,6
1768.25,-200.5,26.75,-1209.5,21.75,486.5,-1423.25,-1439.25,6
224.5,-126.0,-97.25,-602.75,190.75,-92.25,-1166.5,-1692.75,6
-210.75,-26.0,395.25,-259.25,289.5,-671.5,-1052.0,-1647.0,6
-546.75,107.75,674.0,193.25,387.75,-362.0,-748.5,-1294.25,6
-847.25,199.0,146.5,585.75,513.0,66.25,-2.0,-779.75,6
-902.75,258.5,-1107.0,686.5,616.25,283.25,395.75,-341.75,6
-865.0,258.25,-1010.0,825.0,622.5,118.0,378.0,-299.75,6
-804.0,204.75,43.25,907.0,596.5,-273.0,-276.5,-498.0,6
-1083.0,233.75,557.25,293.5,498.0,-768.0,-1165.75,-654.75,6
-1070.0,149.0,929.0,102.75,384.75,-1412.25,-778.75,-546.25,6
-614.0,29.75,282.25,-1167.5,280.5,-1236.25,-928.0,-442.0,6
-157.25,-94.5,45.25,-1093.0,149.75,-652.75,-1439.25,-440.0,6
-38.5,-201.5,-1299.75,-972.75,130.5,-62.5,-1612.75,-414.0,6
1510.0,-239.75,-1341.75,-833.75,160.75,187.0,-1258.25,-352.25,6
1523.25,-162.0,-1273.25,-725.5,174.75,-6.75,-560.25,-238.5,6
1524.25,-44.75,-1156.5,-90.25,138.0,-495.75,-447.75,-308.5,6
826.0,24.0,1094.75,1234.75,108.75,-594.5,-1150.25,-332.75,6
315.75,111.75,1278.25,1372.0,112.25,-28.25,-1561.25,-292.0,6
609.75,118.75,1270.0,1515.0,104.0,404.0,-1345.75,-151.5,6
-45.75,112.75,1367.25,1506.25,-246.5,810.0,-1272.25,-5.0,6
-519.25,67.25,1475.75,-340.5,-529.25,927.0,-670.75,-44.25,6
-414.25,48.25,1266.5,-576.0,-1320.75,972.75,557.75,-84.75,6
-197.5,77.25,-334.25,-741.0,-1038.25,1094.0,1421.75,-68.5,6
286.25,164.25,-466.75,-949.5,63.0,1012.5,1850.0,-31.5,6
88.5,252.5,166.25,-1187.25,49.0,737.75,1684.25,-14.25,6
-575.75,275.0,480.5,444.0,51.5,527.75,1101.25,-78.0,6
-787.5,234.25,204.75,902.0,60.5,454.25,1028.0,-168.75,6
-491.5,59.5,-43.25,884.25,63.5,404.75,442.75,-124.5,6
772.5,-82.0,-284.75,983.25,64.5,358.5,-73.5,6.25,6
968.0,-140.0,-449.75,1149.0,60.25,286.25,-972.25,65.75,6
911.0,-160.25,-890.75,1093.0,57.0,178.25,-1623.25,-51.5,6
822.25,-170.25,-1332.75,1038.0,50.5,48.75,-1478.0,-158.25,6
-726.25,-137.75,-1412.25,-1015.0,51.75,28.0,-1220.75,-129.25,6
-740.75,-86.75,-1221.0,-1202.25,47.25,127.75,214.25,-82.75,6
-239.5,1.5,-1173.0,-1306.5,50.0,275.75,990.0,-73.25,6
414.0,194.0,-1203.5,-1353.0,56.0,612.25,1156.0,-77.25,6
452.5,208.25,-1189.25,109.5,55.0,799.25,1529.0,-128.0,6
295.5,151.5,-712.0,249.5,59.5,832.25,1523.0,-232.0,6
-217.75,23.75,-289.75,107.75,62.75,665.5,1128.5,-289.75,6
-446.25,-217.0,-15.5,44.5,62.5,369.75,1035.0,-255.0,6
-465.25,-401.75,328.5,739.5,57.25,172.75,843.75,-159.75,6
-326.0,-582.0,398.5,638.5,-261.25,-701.25,1014.5,-107.25,6
538.25,-541.25,177.25,705.75,-1049.5,-843.75,1341.25,-99.5,6
485.75,-336.25,-738.25,684.25,-1665.25,-803.25,1403.0,-114.5,6
516.5,-117.0,-1728.75,741.25,-2000.75,-721.75,1372.25,-132.25,6
-1432.25,78.25,-1594.25,-1177.75,-1991.25,-574.75,811.75,-57.25,6
-1353.0,88.75,-1299.75,-1147.0,-1983.5,-593.0,455.75,112.0,6
-1228.75,84.5,-1089.25,-1085.25,-1978.25,-556.5,367.75,258.25,6
-1191.0,94.75,-614.5,-1014.25,-1991.75,-502.25,53.25,343.25,6
-571.0,70.0,722.75,-934.75,-1980.25,-237.25,-58.75,447.25,6
-914.0,78.0,900.75,-671.25,-1983.25,-196.0,259.5,584.0,6
-784.75,37.25,917.25,974.75,-2010.25,-303.0,1139.25,673.5,6
-280.5,58.75,781.5,957.25,-2047.5,-224.75,1278.75,753.75,6
91.75,144.25,670.25,944.25,-2035.25,568.75,526.75,952.5,6
1041.75,132.5,208.0,908.75,-2029.5,1618.25,-1240.75,1144.25,6
662.0,121.5,315.5,931.0,-2048.0,1769.25,-1001.0,1266.0,6
-768.25,50.25,298.5,644.75,-1755.75,1592.0,-633.75,1157.5,6
-823.25,-9.0,-234.0,-1030.75,-1468.25,1417.25,-739.75,822.25,6
-773.0,2.75,-452.0,-836.5,-1378.0,1228.0,543.75,514.5,6
-941.75,12.0,258.75,-744.5,-1524.75,1283.0,478.5,354.25,6
-779.25,37.5,278.25,-722.5,-1965.25,691.75,-148.25,275.75,6
-118.75,47.25,-288.75,591.0,-1998.5,-566.25,112.5,101.75,6
1020.0,21.0,134.75,1361.25,-1986.0,-398.25,-449.5,50.0,6
1061.75,-39.75,130.0,1272.25,-1945.25,-297.75,-798.0,60.5,6
999.75,-65.25,-632.25,1177.0,-1456.75,1100.0,-736.75,108.5,6
50.5,-82.75,683.0,1245.0,-666.75,1569.0,-852.5,360.25,6
-19.25,-101.25,1315.25,1199.25,-247.25,1605.5,-773.75,485.5,6
68.75,-90.5,955.0,1177.25,986.25,1480.5,-818.75,522.75,6
220.5,-92.5,172.5,1051.25,1912.75,1337.0,-816.5,554.25,6
204.75,-68.75,-595.75,946.75,2060.0,1271.0,-947.25,464.5,6
-398.0,-58.75,-288.5,1002.75,2056.0,312.25,-738.25,420.5,6
-330.25,-21.5,1387.25,960.0,1841.0,-889.75,-333.25,534.5,6
-3.0,48.25,1655.25,-1017.5,1770.5,-1142.5,224.5,590.25,6
265.0,86.0,1680.25,-1044.75,1728.25,-1262.5,679.0,583.5,6
166.25,128.25,1322.75,-1063.0,1757.75,-1357.5,492.25,718.5,6
87.25,89.0,491.5,-1020.25,1678.5,-1491.25,231.5,807.5,6
-51.0,30.25,-119.0,-997.5,1493.25,-1615.75,-1714.0,972.75,6
-27.75,-23.75,747.0,-1000.25,1501.5,-1521.0,-1874.0,1305.0,6
267.75,-225.0,2029.75,720.5,1109.75,-1103.0,-1410.5,1683.25,6
888.5,-424.25,2577.0,506.0,773.0,-1037.5,-1253.0,1518.25,6
976.75,271.0,1754.0,397.5,888.25,-948.5,-173.5,1127.25,6
899.25,823.5,816.25,-387.25,904.5,-852.25,-85.0,799.25,6
1071.5,701.75,808.25,-523.75,898.0,-416.5,499.75,659.0,6
938.0,685.0,1115.5,818.25,1070.75,37.0,1105.75,634.75,6
809.0,561.5,333.0,869.25,1010.5,153.25,1551.25,476.5,6
502.25,303.0,-1123.25,998.0,1066.5,-0.5,1358.0,357.5,6
676.25,241.25,-2015.0,673.5,696.25,17.25,1032.0,343.5,6
1159.25,99.5,-2006.5,294.5,254.25,-139.25,24.75,472.75,6
1045.75,83.75,-1564.25,1212.0,-7.25,-619.25,-861.75,712.25,6
1220.5,-103.0,-1462.5,1188.75,200.0,-1315.75,-1080.0,723.75,6
1211.5,-116.25,-1559.5,1354.75,93.0,-2010.0,-417.25,214.25,6
260.5,-88.25,-1917.0,1825.75,-316.25,-1523.25,-52.5,-418.5,6
-1620.0,-473.75,-1733.75,1933.5,-236.0,-1019.25,16.5,-426.75,6
-2044.0,-701.5,-1401.25,1768.25,-417.5,-598.75,363.25,-430.5,6
-2148.25,-345.5,-1276.5,1728.75,-777.0,-301.75,536.0,-630.5,6
-2405.0,-290.5,-1351.25,1152.5,-646.25,-333.5,898.0,-702.25,6
-2257.25,-131.5,-1280.75,411.75,-403.5,-394.25,1381.5,-1114.5,6
-2004.75,-12.0,-980.25,171.25,-267.75,240.0,1305.0,-1378.0,6
-1565.75,18.5,-818.75,-150.5,-345.25,5.0,1453.0,-1563.0,6
-1058.0,148.0,-724.25,-47.25,-313.75,85.5,1364.5,-1482.75,6
-858.75,102.25,-754.75,-61.5,-176.25,286.75,1444.25,-1472.75,6
-465.25,153.25,-676.75,17.25,-13.0,1040.75,1515.75,-1567.0,6
-303.5,82.75,-456.0,112.75,-0.5,1327.5,1480.5,-1623.25,6
-138.0,-54.0,-114.0,-73.25,-60.0,721.75,1548.25,-1605.25,6
-208.5,-390.0,331.25,-303.25,-75.0,356.75,1599.5,-1476.75,6
-160.25,-415.5,985.0,-476.25,-366.75,40.0,1696.75,-1310.25,6
-97.25,-334.25,1709.25,-689.25,-667.75,-416.75,1716.0,-1145.25,6
17.75,-360.25,1883.25,-879.75,-953.5,-1268.5,1774.25,-1024.0,6
160.25,-167.75,1639.75,-996.25,-1124.75,-1115.0,1836.0,-972.25,6
253.25,221.75,1280.0,-852.0,-1138.75,-708.0,1634.25,-937.25,6
400.5,326.75,1271.0,-420.25,-1145.5,-76.25,1319.0,-857.25,6
388.0,178.75,1422.75,-303.5,-1169.75,397.75,1189.75,-735.0,6
790.5,22.25,1342.0,-326.5,-1194.5,215.75,910.5,-562.25,6
1190.75,-135.0,1140.25,-317.5,-1166.0,-171.5,735.75,-368.75,6
1033.0,-54.75,1176.75,-170.75,-1089.5,-249.0,422.25,-170.5,6
666.75,25.5,993.5,-133.25,-998.25,6.0,795.0,80.25,6
133.5,24.0,758.5,-231.0,-795.0,348.5,1006.25,277.5,6
-678.75,-114.25,917.5,-203.5,-532.5,569.5,587.5,441.75,6
-1496.0,-243.0,1013.75,-97.5,-345.0,919.75,431.75,559.25,6
-1303.75,-497.0,784.75,-177.25,-203.0,1417.5,186.5,581.25,6
-929.25,-427.75,609.25,-446.0,-165.5,1683.25,315.5,635.25,6
-795.25,-192.25,728.25,-451.0,-176.25,1506.5,177.25,668.25,6
-755.25,88.0,1693.75,-266.75,-164.25,1073.75,-369.25,633.25,6
-792.5,660.75,2032.5,-286.75,-284.5,467.5,-560.25,595.25,6
-186.75,771.0,2016.25,-251.75,-233.25,204.25,-598.25,560.5,6
769.5,820.5,1972.25,-205.5,83.25,135.5,-357.75,600.25,6
1217.75,943.5,-21.5,-222.5,110.25,-17.5,69.5,692.25,6
1288.5,957.25,-301.5,-175.75,-87.75,-141.5,604.25,723.0,6
807.5,801.25,-769.25,-386.0,-235.0,-188.25,1092.0,605.25,6
483.75,578.25,-1178.25,-678.25,-507.75,-108.0,1029.5,515.0,6
189.0,354.75,-1365.25,-690.0,-692.0,-7.75,1038.5,551.5,6
-188.75,-160.5,-1331.5,-596.0,-569.25,66.0,1174.0,450.25,6
-382.0,-998.5,-1364.0,-674.25,-228.25,67.25,1415.25,338.75,6
-366.75,-1000.25,-1417.75,-703.0,361.25,109.0,1098.75,302.0,6
-479.0,-1021.0,9.25,-589.75,757.25,183.5,-406.0,151.25,6
-197.25,-1056.5,696.75,-490.0,1193.0,294.0,-1006.75,-103.5,6
304.0,-1092.25,524.0,-477.25,1418.0,288.0,-1232.5,143.75,6
622.75,-741.0,404.5,-373.25,1487.0,257.75,-1972.5,677.75,6
987.0,445.75,236.0,-226.5,1904.75,300.5,-1224.5,587.25,6
1192.25,789.5,-1962.0,-181.25,1855.5,308.0,-757.0,654.75,6
1232.0,901.5,-1981.25,-133.0,1786.5,385.0,-530.25,867.75,6
1126.25,921.5,-2053.0,-152.75,1683.5,351.0,-724.25,905.75,6
790.75,946.75,-1579.75,-184.25,1543.0,343.75,-877.0,1132.25,6
161.5,935.5,-576.75,-160.25,1550.75,430.25,-579.25,1062.25,6
-304.75,919.0,-346.75,-17.5,1334.25,478.75,-757.75,706.0,6
-393.25,817.5,225.0,121.75,1397.0,663.0,-996.25,304.25,6
-362.25,628.0,541.75,250.5,1263.0,775.0,-1243.0,346.5,6
-237.5,451.5,296.0,339.75,1029.5,780.25,-1369.5,342.75,6
-363.75,296.25,65.5,319.5,834.25,551.75,-1882.25,-490.0,6
-489.25,173.0,653.25,327.5,650.25,377.0,-1904.75,-570.25,6
-347.5,439.0,712.25,397.75,1116.75,448.5,-1068.0,-511.5,6
16.5,374.0,754.75,414.25,1234.75,366.25,-681.75,-923.5,6
621.25,86.75,1420.0,156.75,1293.0,436.5,-1167.0,-446.5,6
935.0,298.0,1729.75,-121.0,1222.75,378.25,-1268.0,-206.0,6
1003.75,236.0,2044.75,-403.0,982.5,283.25,-841.75,345.75,6
673.0,-484.5,1724.5,-492.25,839.25,175.75,-970.25,470.75,6
126.75,-1059.75,1345.75,-261.5,587.75,25.0,-722.25,457.25,6
-440.0,-1040.25,1286.0,58.25,440.75,6.0,-920.5,546.0,6
-658.75,-1040.25,1191.25,143.75,763.5,-42.0,-1336.0,-477.25,6
-1106.5,-906.0,815.25,24.0,1032.75,-48.0,-1308.0,-1013.0,6
-1395.25,505.0,335.75,79.0,353.75,-113.5,-1073.75,-1342.25,6
-1415.25,74.25,186.0,119.5,-714.0,-63.25,-852.0,-1225.25,6
-1030.0,-901.0,168.75,60.0,-1148.5,17.5,-1004.75,-1319.25,6
-265.5,-141.5,95.0,-124.25,-1464.75,1.25,-1092.5,-1285.25,6
375.5,387.0,-89.0,77.75,-1815.0,-75.0,-724.75,-1263.0,6
711.75,633.25,-41.0,475.75,-1956.5,-87.25,-473.5,-1440.75,6
746.5,506.5,133.5,511.5,-2367.75,-61.75,-126.5,-1181.5,6
712.25,-66.0,564.0,695.5,-2455.5,28.25,67.75,-1048.75,6
715.75,57.75,1035.0,577.75,-2124.75,190.5,402.5,-1193.0,6
709.25,289.75,667.5,-245.0,-1678.25,349.0,-587.25,-794.25,6
823.5,40.75,83.0,-880.0,-870.0,606.0,-1826.0,424.25,6
711.25,-448.5,-7.5,-303.0,-498.25,734.25,-1640.75,951.5,6
128.75,-352.5,9.25,270.75,-501.5,466.75,-1430.75,331.0,6
-47.0,62.5,-316.25,148.75,-677.0,279.25,-816.0,387.0,6
5.75,725.25,-762.0,405.5,-513.5,232.5,-390.5,740.0,6
60.25,1032.5,-955.25,483.0,-519.75,19.0,110.5,432.5,6
-119.75,964.0,-1068.75,529.75,-426.75,101.25,1064.0,481.5,6
-357.5,953.0,-901.5,566.75,-303.75,142.25,1000.25,-593.5,6
-337.25,979.0,-540.5,504.25,-756.25,327.75,755.75,-898.25,6
-366.5,180.0,-343.0,515.25,-1002.75,491.75,597.75,-712.0,6
-58.0,-978.75,5.25,439.0,-1063.0,359.5,548.5,-600.0,6
642.75,-965.25,694.25,298.75,-1089.5,205.5,451.0,-332.5,6
1277.5,-995.25,328.5,104.0,-1097.25,-121.75,458.25,-401.5,6
1538.75,-989.5,-610.5,8.5,-1002.0,-344.75,922.25,-311.0,6
1201.5,-907.25,-1940.5,-123.75,-650.0,-531.5,1110.25,-391.75,6
755.25,-1058.25,-2141.0,-279.0,-1375.25,-596.75,1118.5,-85.75,6
366.0,-678.25,-1782.75,-426.25,-1691.25,-633.0,949.5,-46.25,6
-178.5,-664.25,-1025.5,-525.0,-2232.75,-794.25,798.75,-185.5,6
-569.0,-25.5,-534.5,-623.5,-2453.75,-980.75,782.5,-22.5,6
-821.0,327.5,-157.5,-132.0,-903.0,-741.5,497.5,-157.0,6
-1365.75,157.0,3.0,562.0,-666.25,-538.75,325.75,-559.25,6
-1658.25,382.25,-192.25,505.0,-846.5,-800.5,416.0,-416.0,6
-1379.5,695.5,-781.75,405.0,-958.5,-700.25,223.75,-808.0,6
-999.25,526.75,-1317.5,353.25,-1391.25,-714.0,-124.0,-756.25,6
-900.25,446.5,-1283.0,104.0,-1829.25,-781.5,-378.25,-201.25,6
-874.0,344.5,-1377.25,-82.25,-1527.75,-771.25,-489.75,-37.25,6
-299.5,669.25,-1316.75,-348.5,-1247.5,-735.5,-559.25,-28.75,6
164.25,1086.75,-1113.75,-560.5,-743.5,-561.25,-610.0,-188.5,6
693.25,1392.0,-750.25,-705.75,-395.25,-607.0,-962.75,371.75,6
943.75,1592.0,-456.5,-701.25,18.75,-707.0,-1152.5,364.75,6
913.75,1117.5,-1.75,-722.5,776.75,-766.75,-1110.5,551.0,6
1117.5,496.5,487.75,-735.75,1046.0,-656.25,-1360.75,1050.0,6
1147.75,-38.5,492.5,-407.25,1305.5,-722.5,-1194.25,812.75,6
1144.0,-283.75,425.0,-182.25,1536.25,-690.0,-801.5,673.5,6
1216.25,-198.25,214.75,-88.5,1675.5,-662.0,236.75,539.5,6
1016.5,-266.0,197.75,174.75,2302.75,-152.75,692.0,6.0,6
383.75,-465.75,401.5,845.25,2136.0,916.0,349.25,-675.25,6
-235.0,-824.25,837.5,1110.25,1833.25,1243.25,248.25,-1819.75,6
-205.0,-581.25,1050.5,934.75,1589.75,1093.0,226.5,-2280.75,6
-600.0,-127.5,1102.25,758.25,1224.5,1167.5,409.0,-2120.0,6
-1245.75,47.0,1139.25,544.25,1311.75,1311.0,591.0,-1860.0,6
-1075.75,314.25,789.75,353.0,1544.75,1279.25,902.5,-869.75,6
-1221.75,149.25,627.5,445.5,1344.25,1136.0,1137.75,628.5,6
-1036.75,172.0,427.5,169.75,950.5,621.0,894.75,762.25,6
-806.75,-29.0,248.25,117.25,759.0,212.75,-153.0,915.25,6
-505.0,-254.25,71.75,29.25,572.25,-358.5,-857.5,1289.25,6
-124.0,-380.25,81.25,-78.0,370.0,-685.5,-914.75,1556.25,6
-262.0,-449.5,588.0,-124.75,-25.0,-741.75,-944.25,1711.0,6
-529.25,-317.25,894.75,-94.75,86.5,-720.75,-573.0,1698.75,6
-827.75,-114.0,740.75,-31.75,-94.25,-540.0,100.5,1697.25,6
-802.5,4.0,149.75,-6.5,-996.75,-121.5,987.25,1620.25,6
-644.0,-75.25,-755.5,-7.0,-2143.75,181.0,785.5,1537.5,6
-525.25,-75.0,-1210.75,-45.25,-2098.25,724.0,628.0,1150.5,6
-307.75,-137.0,-1251.0,28.25,-2045.5,635.0,403.75,830.25,6
245.5,-63.75,-533.75,-11.25,-2062.75,-247.25,-286.25,565.0,6
-91.5,-58.25,261.75,3.0,-2296.75,-719.25,-883.0,41.25,6
-832.25,-104.0,303.25,-125.0,-2294.0,-1026.0,-881.75,-28.25,6
-914.25,-90.0,290.75,-240.5,-1409.75,-757.25,-792.25,183.5,6
-844.0,-92.0,579.75,-233.5,-444.0,-431.0,-53.0,299.25,6
-302.25,-47.25,463.5,-280.0,1073.25,-433.0,257.5,131.75,6
-16.75,-90.5,363.25,-266.25,1554.5,-159.25,385.25,-108.5,6
185.5,-132.25,473.75,-234.25,1942.25,49.5,-126.75,-245.25,6
161.75,-203.0,1028.25,-189.25,1823.5,223.5,-241.5,-283.5,6
152.75,-219.25,1327.5,-183.5,1534.5,265.5,-75.5,-361.5,6
460.5,-161.25,1532.25,-204.5,1036.0,371.5,-222.5,-439.5,6
434.0,-103.5,1204.25,-283.5,1129.75,359.75,113.75,-210.5,6
476.0,-84.5,216.0,-340.25,1665.25,336.75,679.75,275.5,6
278.25,-53.75,-457.25,-454.5,2021.0,313.25,1158.0,434.25,6
-142.5,-35.5,-832.0,-464.0,2018.0,217.5,1557.5,234.5,6
-489.0,-44.75,-788.5,-493.25,1253.0,323.0,1414.75,17.75,6
-951.5,-52.5,-725.25,-518.5,1118.5,596.25,978.5,-315.0,6
-1109.0,-72.25,-749.0,-309.0,2012.5,698.25,832.75,-679.0,6
-758.5,-118.5,-729.75,-61.5,2818.5,451.75,501.5,-687.25,6
-646.25,-158.5,-359.75,119.75,2694.0,386.0,52.0,-629.75,6
-483.5,-130.75,410.0,129.5,2496.0,476.25,516.25,-603.5,6
-150.75,-114.75,760.75,173.75,1602.5,959.25,1179.25,-576.25,6
49.25,-77.5,178.75,256.75,461.75,1001.5,618.5,-730.0,6
1003.5,-85.0,-609.25,338.25,-85.0,1021.0,-773.5,-871.25,6
1679.0,-47.25,-532.25,374.25,-435.5,1005.25,-1213.75,-927.0,6
1670.0,18.75,-837.5,388.0,-710.25,973.25,-770.5,-810.0,6
1458.75,71.5,-1028.0,293.25,-867.75,967.5,-380.0,-641.25,6
1154.25,142.0,-431.0,206.25,-953.25,1010.5,755.5,-640.5,6
846.75,119.25,293.0,372.5,-1141.75,1048.5,1052.0,-626.0,6
625.75,77.25,710.0,543.75,-1493.5,-662.5,637.5,-592.75,6
604.75,21.5,365.0,637.25,-1472.75,-905.5,511.75,-484.25,6
766.5,-15.25,434.75,469.75,-1490.75,-937.0,34.5,-428.5,6
391.5,-53.25,359.5,365.25,-1229.0,-941.5,113.5,-487.5,6
33.25,-83.75,-233.0,187.0,-1150.25,-972.0,520.75,-505.5,6
-183.5,-69.5,-944.5,71.0,-1253.25,-1005.75,552.75,-482.75,6
-331.75,8.75,-1364.5,59.25,-1153.75,-979.0,418.25,-460.5,6
-1238.0,94.0,-1345.0,-89.0,-1110.75,-964.75,448.0,-424.5,6
-1488.25,144.0,-1320.25,-91.5,-1027.75,-1014.5,771.5,-316.0,6
-1489.25,153.0,-909.5,-295.5,-1089.25,-1090.5,850.5,-309.5,6
158.5,126.75,-369.25,-563.75,-1151.5,-1124.75,946.0,-288.0,6
-65.25,146.0,10.25,-638.0,-1201.5,-1067.5,975.0,-197.0,6
-119.25,193.25,-36.25,-464.5,-1082.0,-1031.25,942.25,-198.5,6
-900.75,179.75,-129.0,-397.5,-820.75,-1060.0,938.5,-171.25,6
476.0,130.75,112.75,-340.5,-544.0,-952.25,834.5,-269.5,6
1278.75,149.0,-83.75,-250.5,-300.75,-851.25,758.25,-514.5,6
1339.0,175.75,-272.75,-382.25,-456.25,-830.75,713.0,-872.25,6
624.5,160.0,-222.5,-370.0,-873.25,-714.0,731.75,-1182.5,6
-868.5,100.25,-309.25,-267.5,-553.25,-669.5,732.25,-1342.0,6
-1391.5,72.25,-315.5,-236.5,-322.75,-543.75,741.25,-1621.5,6
-1006.5,99.5,-219.25,-232.0,-626.5,-406.5,774.5,-1684.0,6
-143.0,103.5,-227.25,-174.5,-1726.0,-278.0,637.0,-1706.5,6
350.75,155.25,-26.75,-222.5,-2464.25,-173.5,382.25,-1651.5,6
760.25,126.0,106.5,-248.5,-2199.5,-92.5,557.5,-1463.75,6
1267.75,79.25,36.75,-232.75,-1856.0,-37.75,916.5,-1251.0,6
1202.5,116.25,36.5,-219.25,-1832.5,10.0,1001.75,-1080.5,6
1086.25,182.0,223.5,-150.5,-2122.25,132.0,986.5,-938.25,6
828.0,212.75,633.0,-84.25,-2462.5,297.75,736.0,-780.25,6
681.5,121.5,687.0,-2.0,-2215.0,367.5,289.25,-615.5,6
136.0,74.5,706.25,-27.0,-1560.0,375.25,159.75,-534.5,6
-174.25,-75.0,1188.75,-60.5,-1233.0,437.0,555.25,-402.75,6
-479.25,-270.75,1297.5,-49.5,-1198.75,396.75,757.25,-253.0,6
-754.0,-290.0,1348.5,-0.25,-1147.5,195.75,536.25,117.25,6
-713.5,-312.25,1183.5,-31.25,-738.75,34.25,470.75,563.25,6
-918.25,-296.25,88.75,-83.0,-479.75,341.5,451.75,1092.75,6
-835.0,-268.75,-704.75,-52.5,-811.0,647.75,399.25,1579.25,6
-853.75,-114.0,-742.75,-47.75,-1160.5,672.75,423.0,2056.75,6
-956.0,219.0,-851.0,-41.75,-1074.0,863.0,254.25,2490.25,6
-1213.75,394.5,-975.5,-32.5,-153.25,936.5,-10.25,2613.75,6
-1214.0,312.75,-1088.5,-36.75,619.25,802.25,-174.0,2567.25,6
-996.25,-19.5,-698.0,-10.25,1170.5,593.25,-248.5,2480.5,6
-638.75,-491.5,-193.25,-18.5,2066.75,406.5,-166.5,2380.5,6
-277.25,-720.75,-88.75,-54.5,2410.25,256.75,-90.75,2227.25,6
-218.5,-505.75,357.25,0.5,2017.75,167.5,-281.5,1991.25,6
-134.75,-210.75,738.25,-25.0,1809.75,62.25,-419.75,1804.75,6
-27.0,-8.5,625.0,-43.75,1753.25,-87.25,-559.0,1580.75,6
110.5,171.0,386.5,7.75,1919.25,-201.25,-834.25,1332.75,6
50.5,466.75,440.0,-27.5,2256.75,-298.5,-972.0,1123.25,6
16.75,937.75,304.5,-55.25,2432.25,-358.0,-1025.5,939.75,6
94.25,969.25,12.5,-76.75,2552.25,-435.75,-939.0,824.5,6
146.75,755.5,30.0,-97.25,2565.75,-474.5,-875.25,731.25,6
265.0,-172.75,221.0,-84.0,2431.75,-492.5,-837.25,651.0,6
356.25,-969.25,452.75,-83.75,1766.25,-488.25,-642.5,597.0,6
494.75,-945.75,291.5,-29.5,964.5,-334.75,-468.25,548.75,6
654.25,-345.0,270.25,-1.25,242.75,-173.5,-223.0,508.75,6
834.5,1034.25,358.5,-150.0,336.5,50.0,-129.0,493.75,6
648.25,1071.5,299.5,-230.75,677.75,469.5,-180.75,515.25,6
-454.25,-79.25,605.0,-243.25,829.25,849.0,-227.0,549.25,6
-575.0,-827.5,639.25,-227.5,1692.25,1201.75,-113.0,557.0,6
-379.75,-817.0,306.25,-216.75,2062.75,1355.0,-13.75,569.75,6
1221.75,-763.25,-270.5,-280.75,2317.75,1402.75,-139.5,247.25,6
1523.0,-217.5,-1057.25,-296.5,2798.0,1537.5,-71.5,-148.25,6
1603.0,431.5,-890.75,-279.0,2562.5,1599.0,-227.25,-492.0,6
1468.0,704.0,-728.0,-352.25,2361.5,1493.0,-266.0,-609.25,6
951.5,388.25,-575.75,-353.0,2199.0,1357.0,-307.5,-777.5,6
517.5,-10.0,-331.25,-280.5,1817.5,1263.75,-579.75,-865.25,6
321.0,5.0,-252.25,-344.5,1520.0,1249.0,-427.25,-796.5,6
229.75,271.25,-423.25,-188.25,1681.75,1321.0,-247.25,-676.25,6
167.0,488.25,-886.25,-86.75,1381.25,1326.0,-286.5,-468.0,6
123.75,601.5,-964.0,-3.75,1158.5,1314.25,-577.5,-624.75,6
-139.5,502.0,-464.5,181.25,888.0,1223.75,-967.75,-805.5,6
-305.75,515.25,419.5,315.25,525.0,1077.25,-1584.5,-971.0,6
-434.0,323.5,963.5,626.0,647.75,947.0,-2238.75,-1150.75,6
-318.75,211.0,1329.5,768.5,332.75,746.75,-2384.0,-1105.25,6
-269.0,75.0,1588.25,943.5,120.25,450.0,-2004.75,-1152.0,6
-323.75,-66.25,1376.5,1096.75,-276.75,187.75,-1316.75,-987.0,6
-415.25,278.5,869.75,954.25,-677.75,-219.25,-775.0,-578.0,6
-662.5,1269.0,166.5,482.0,-860.25,-726.25,-481.25,-413.5,6
-959.25,1858.0,-277.5,491.25,-1155.5,-762.0,-499.0,-943.75,6
-302.25,1169.75,-271.25,1036.75,-658.0,-98.75,-604.5,-2214.75,6
302.5,-189.75,122.25,1863.5,-281.75,593.75,-638.25,-2723.5,6
122.25,-779.25,12.75,1770.5,-168.5,521.25,-561.75,-2797.25,6
563.0,-583.75,-786.5,1373.0,-52.0,220.5,-409.75,-2653.75,6
964.75,-625.25,-805.75,1351.25,121.5,354.0,-163.0,-2613.5,6
820.5,-1323.25,-448.25,970.0,293.75,48.5,-49.75,-2544.5,6
682.0,-1474.5,-549.0,642.25,598.5,106.0,-56.25,-2511.0,6
-139.0,-1636.75,143.75,345.5,-52.5,-28.75,61.0,-2206.25,6
-699.0,-1115.25,915.0,-100.0,-646.75,-160.75,240.75,-1862.75,6
-859.25,-539.75,1152.75,-200.0,-1065.25,-288.75,385.0,-1026.5,6
-366.75,41.5,945.5,-487.25,-1416.0,-581.75,564.0,-545.0,6
-106.0,59.0,365.0,-500.25,-1663.75,-688.25,669.75,-435.25,6
300.0,-32.75,-184.0,-737.5,-1853.5,-790.0,863.75,-93.75,6
581.25,-255.25,-743.75,-739.25,-1755.25,-671.5,939.0,102.25,6
305.0,-334.0,-1039.75,-827.25,-1837.75,-647.25,932.25,184.5,6
232.0,-117.0,-1166.5,-841.0,-1815.5,-468.0,1034.75,218.5,6
-95.75,-106.5,-660.5,-838.75,-2042.5,-441.25,1027.25,519.75,6
-297.5,168.75,-324.5,-855.75,-2248.75,-360.25,1003.5,850.25,6
-591.75,309.0,21.75,-794.25,-2182.0,-275.0,862.0,1136.5,6
-797.5,871.25,124.5,-790.0,-1816.25,-186.25,655.5,1115.5,6
-624.25,1204.0,12.75,-731.75,-1623.75,-72.25,746.0,958.0,6
-257.0,794.0,-56.25,-724.0,-1316.75,-44.0,840.0,897.0,6
23.75,145.0,-48.25,-585.75,-1078.5,-44.75,728.25,773.25,6
146.0,-252.75,281.75,-574.25,-865.5,-184.5,557.75,755.25,6
299.25,-112.75,920.25,-614.25,-843.75,-343.75,334.25,297.0,6
370.0,79.5,1000.25,-770.75,-880.75,-607.0,189.75,-215.25,6
441.5,298.5,503.0,-753.0,-354.0,-825.25,241.0,-246.75,6
373.75,403.0,302.5,-669.75,-167.0,-1118.0,253.0,-70.5,6
233.75,621.25,278.5,-597.0,-21.75,-1315.25,285.75,340.0,6
163.5,537.5,101.5,-454.25,248.5,-1213.5,458.25,590.5,6
139.25,364.5,-400.0,-295.0,510.0,-1118.5,287.0,35.0,6
-121.0,264.75,-637.75,-171.0,386.0,-1072.75,130.0,-342.25,6
-211.25,68.5,-331.5,-193.75,-400.25,-661.25,109.25,-88.25,6
-69.25,-649.75,-110.75,-137.25,-1032.5,89.75,-15.5,-91.25,6
-89.25,-931.5,163.5,-52.75,-479.5,593.75,-71.75,-130.5,6
-29.5,-496.25,241.25,144.75,304.75,882.75,-215.0,-229.75,6
-124.25,250.25,-21.75,275.75,790.5,745.0,-241.5,-156.0,6
-107.5,1153.25,-502.0,320.5,1409.25,288.5,-235.75,839.0,6
19.75,1415.0,-663.75,300.75,1025.75,-126.75,-159.25,1597.75,6
6.0,1129.25,-506.75,347.0,-53.25,-426.5,-35.0,1452.25,6
78.0,418.75,-412.75,374.0,-1375.5,-539.25,24.5,1194.25,6
-172.75,130.75,-165.0,237.25,-2135.75,-601.75,19.5,1174.5,6
-575.25,-479.5,304.5,136.25,-1875.0,-574.25,-6.75,999.25,6
-780.0,429.0,353.0,79.75,-1241.75,-439.5,43.0,522.5,6
-470.5,1605.0,275.75,209.5,-58.0,-418.25,-95.5,-283.25,6
-47.25,1203.0,688.75,196.25,-172.0,-575.75,-248.75,-848.0,6
-106.5,-95.75,552.0,18.75,-1057.25,-686.25,-380.0,-993.5,6
-163.25,-276.25,-106.75,2.5,-1340.0,-726.0,-467.75,-1055.0,6
-324.75,-362.0,-860.0,40.75,-1530.75,-780.75,-430.0,-720.0,6
-448.5,223.0,-209.0,132.5,-927.25,-773.25,-504.75,23.5,6
-452.25,-758.75,304.75,251.25,-370.0,-670.0,-601.25,1324.5,6
-346.0,-2028.25,518.5,225.5,36.75,-562.25,-548.0,2159.75,6
-345.0,-1965.5,-587.25,186.5,452.25,-463.25,-368.5,2570.5,6
-293.0,-1962.5,-1807.75,180.25,1071.25,-335.75,-195.25,2131.0,6
-265.0,-1996.25,-1741.5,211.25,-323.5,-233.0,-323.25,1729.25,6
-516.0,-2046.25,-818.25,231.75,-223.25,-215.5,-400.75,1389.5,6
-542.25,-2066.25,230.25,227.25,-214.75,-253.5,-253.75,586.25,6
-346.5,-1326.25,792.0,230.25,561.75,-235.5,-264.75,-872.0,6
48.75,-111.25,1415.75,192.75,1377.25,-209.0,-249.25,-1591.25,6
332.75,507.25,1539.0,265.5,1886.75,-212.75,-243.0,-1649.25,6
484.5,380.75,592.75,352.5,2004.0,-254.5,-289.25,-1537.25,6
471.25,-297.25,-666.5,281.25,912.0,-280.5,-55.0,-1513.25,6
428.75,408.5,-1403.5,281.5,-125.75,-210.0,-55.5,-1730.5,6
314.0,1128.75,-1670.5,272.25,-168.75,-233.5,-140.25,-1001.25,6
384.25,1486.5,-1696.75,233.75,51.25,-186.25,17.5,-651.75,6
524.75,1897.75,-848.75,221.0,1154.0,-4.0,-15.0,-737.25,6
134.5,1904.0,1636.25,178.25,1700.0,90.75,6.75,-679.0,6
-81.5,1690.75,2160.0,145.75,1446.5,277.5,56.0,-508.0,6
-71.25,-10.0,1233.5,66.75,167.5,445.0,89.5,-373.5,6
-53.5,33.75,-239.0,9.0,100.5,647.25,122.75,-565.0,6
-247.5,-853.5,-668.0,-154.25,763.25,745.25,250.0,-139.0,6
-433.0,-1370.25,-1485.5,-268.5,1544.25,722.25,352.0,747.0,6
-373.5,323.5,-1437.25,-266.75,1485.25,740.5,158.5,1227.75,6
-117.5,428.5,-1292.0,-392.0,2039.5,431.0,5.0,1734.25,6
98.0,612.25,-1361.75,-512.5,2269.5,157.0,-25.0,1367.0,6
97.0,290.25,-626.0,-564.25,2136.25,37.25,14.75,622.5,6
244.0,461.0,392.25,-377.75,1715.0,25.5,56.75,-560.25,6
-26.25,396.75,856.0,-108.0,410.0,31.75,-22.75,-1368.5,6
-77.25,348.0,1612.75,-60.5,-139.25,-81.75,-93.25,-1601.75,6
22.75,570.25,1934.5,45.5,-334.5,-162.75,-37.25,-1778.75,6
-56.0,1144.75,1443.25,66.0,294.25,-174.5,63.75,-1738.5,6
-111.5,1375.5,1301.5,-57.75,700.25,-107.5,88.75,-1841.0,6
-454.0,1442.0,847.0,-94.25,1539.25,31.5,6.5,-1786.75,6
-610.25,1452.0,-81.5,-144.75,1567.5,198.75,-137.75,-1320.75,6
-380.25,933.5,-572.0,-137.5,1330.25,290.75,-183.25,-288.0,6
-125.75,471.75,-1160.75,-180.5,725.5,371.0,-176.0,-48.75,6
-107.25,5.0,-942.5,-115.75,-1440.5,548.75,-170.75,453.75,6
-58.75,-573.75,31.5,-41.25,-2810.75,596.5,109.0,654.25,6
-25.5,-706.75,-3.0,-103.25,-2969.5,501.75,468.75,724.75,6
8.25,-475.25,-1111.75,-165.0,-2475.0,281.25,611.0,1033.75,6
158.25,-101.5,-1708.0,-389.0,-2332.5,30.25,641.25,1210.75,6
125.5,-50.75,-1052.25,-495.0,-416.0,-124.0,599.75,1514.75,6
50.75,-140.5,-439.0,-572.0,757.0,-307.0,457.0,2005.25,6
94.75,-237.0,-443.75,-582.0,1180.5,-544.75,382.0,2127.25,6
208.5,-53.0,-1134.5,-521.0,1269.5,-797.25,427.25,2235.0,6
371.5,273.0,-1063.75,-461.0,349.0,-1062.5,449.0,2510.0,6
566.5,616.5,-857.75,-366.0,-922.75,-1352.25,624.0,2865.25,6
480.75,726.75,-269.5,-361.25,-2164.5,-1323.75,846.5,2879.5,6
230.5,634.0,164.0,-412.25,-1920.75,-1240.75,858.5,2929.0,6
379.5,615.25,214.5,-439.5,-498.0,-1124.75,788.0,3010.75,6
631.25,442.25,267.0,-460.25,610.75,-850.75,803.5,2623.25,6
496.25,190.25,443.25,-398.0,583.5,-703.75,836.75,1570.75,6
123.25,15.75,669.0,-252.0,551.0,-411.25,694.75,1145.0,6
-21.25,-105.0,779.0,-20.0,691.75,-273.0,566.0,173.0,6
2.25,-206.5,750.0,150.25,1305.25,-250.5,417.75,-588.0,6
-274.0,-269.5,819.5,107.25,1693.5,-207.5,217.5,-908.0,6
-401.25,-355.75,1075.5,103.0,2377.25,-218.75,148.5,-1169.75,6
-403.5,-401.5,961.0,127.25,2083.25,-244.0,162.0,-1100.0,6
-359.5,-343.0,1007.25,87.75,1798.25,-304.75,188.5,-493.25,6
-256.5,-330.25,1628.0,111.0,1519.25,-19.5,219.75,470.0,6
-205.5,-311.0,1585.0,122.25,1308.5,480.25,299.25,698.5,6
-72.25,-393.5,1557.0,200.25,1321.25,902.5,329.5,921.25,6
197.75,-458.5,1014.0,351.0,1529.5,995.5,358.25,1021.0,6
243.25,-511.75,613.0,502.5,1733.25,1070.75,375.75,1064.75,6
226.5,-586.25,48.0,546.0,1937.0,1169.0,329.75,518.5,6
10.75,-632.75,-173.75,488.75,2146.0,1277.25,351.25,-533.25,6
-475.0,-662.25,23.75,454.0,2437.5,1330.5,397.0,-290.25,6
-799.25,-837.5,48.0,448.25,2579.5,1479.25,420.25,45.5,6
-1208.75,-1170.25,-300.25,555.0,2428.5,1736.25,377.0,63.75,6
-1644.25,-1116.25,245.25,832.75,2328.75,1644.75,393.0,-634.25,6
-1625.25,-979.0,1393.5,741.75,1624.5,1326.25,514.25,441.25,6
-1301.25,-875.0,1577.75,658.25,522.25,953.5,425.75,770.5,6
-1094.0,-748.5,585.75,703.25,-842.5,552.75,335.5,442.75,6
-853.0,-614.75,-309.25,549.75,-1332.25,239.5,250.0,464.5,6
-521.5,-451.75,-945.0,477.5,-1468.75,83.25,107.75,356.0,6
-581.25,-348.5,-1152.0,414.25,-1404.25,164.25,75.75,734.5,6
-506.0,-300.5,-1274.25,300.0,-949.5,341.0,8.5,756.0,6
-414.25,-256.0,-1328.5,188.0,-630.5,598.75,-33.5,651.75,6
-16.0,-272.5,-1385.5,122.0,-778.0,845.75,-159.0,494.75,6
370.25,-176.5,-1095.5,121.5,-701.0,988.75,-371.5,270.0,6
756.75,-48.0,-444.25,-8.75,-468.0,1136.5,-650.75,336.0,6
789.75,105.0,-278.5,-102.25,-345.25,1303.5,-914.0,34.5,6
859.5,253.5,-278.75,-184.75,-218.5,1217.0,-1218.5,-264.5,6
861.25,270.25,-91.75,-205.0,-532.5,818.75,-1180.5,-519.5,6
979.75,206.0,25.5,-200.0,-1253.5,397.0,-1172.5,-770.25,6
1408.75,143.0,-40.75,-249.25,-1792.0,104.5,-1284.75,-1145.25,6
1400.5,83.75,-167.0,-251.5,-1843.75,89.5,-1000.75,-1275.75,6
1749.5,124.0,163.75,-274.25,-1368.5,246.75,493.75,-1335.75,6
1630.5,166.75,593.25,-361.75,-744.0,496.5,422.25,-1170.75,6
1449.0,175.25,933.5,-375.25,-471.25,680.5,381.25,-877.25,6
1374.5,207.25,964.0,-523.75,-588.5,718.0,320.5,-999.75,6
1231.25,174.5,750.25,-522.75,-836.75,618.25,341.5,-1128.75,6
824.0,144.25,197.25,31.0,-1088.25,365.25,426.75,-1046.5,6
-146.5,195.75,-346.75,884.75,-1302.0,-12.5,505.5,-777.5,6
-1011.25,229.75,-773.5,939.0,-863.5,-372.5,452.25,-667.75,6
-1769.5,220.25,-1064.0,104.5,390.5,-582.5,229.5,-409.5,6
-1573.25,348.75,-1108.25,-688.25,1437.75,-994.25,88.0,82.0,6
-839.75,725.5,-1241.75,-1175.0,1379.75,-1252.0,137.0,211.5,6
-650.25,600.75,-712.75,-1233.75,1472.5,-1305.0,-212.75,-364.0,6
-634.75,446.0,6.5,-1440.5,1592.5,-1316.25,-480.25,-290.25,6
-411.5,540.5,107.25,-1328.25,1798.75,-1145.25,-731.75,-18.25,6
-322.5,485.5,796.0,-842.0,1923.75,-628.25,-950.25,-59.75,6
-212.25,387.25,874.5,-515.75,2035.0,-344.0,-1033.5,241.25,6
-144.0,355.75,230.25,-291.0,2136.0,-10.0,-1013.0,259.75,6
-667.75,372.25,-628.5,-572.25,1485.25,151.5,-1054.5,528.75,6
-540.75,468.0,-1162.5,-384.0,863.0,311.75,-1040.75,722.5,6
-399.75,379.75,-1447.25,155.75,413.0,371.25,-1006.5,669.5,6
-434.75,344.0,-1299.5,531.25,-1080.75,519.5,-1223.75,249.0,6
-214.25,193.0,-1420.25,699.25,-786.75,805.5,-1441.25,-453.5,6
588.25,93.75,-1313.5,822.5,-452.75,705.25,-1460.25,-409.5,6
2037.5,116.25,-983.0,943.0,-195.5,691.0,-1349.5,-434.75,6
2297.0,239.25,-894.75,793.25,-304.75,589.5,-1284.0,-502.5,6
2189.0,161.0,-520.5,969.75,-424.5,749.0,-1361.75,-751.25,6
1333.75,-300.75,-85.0,1189.5,-652.25,1157.0,-1668.5,-938.5,6
893.5,-292.75,274.0,1356.0,-1006.0,1287.0,-1508.5,-793.5,6
741.5,-210.25,391.0,1162.75,-561.25,1406.25,-1014.75,-583.25,6
475.25,-266.75,769.0,515.25,1027.75,1552.75,-667.5,-486.5,6
267.5,-62.75,1065.25,-34.25,765.75,1433.0,-537.25,-334.0,6
-38.0,94.75,1254.0,3.75,555.75,957.5,-740.0,-160.25,6
-372.5,315.0,1297.5,165.25,89.75,558.5,-901.25,22.5,6
-624.75,532.5,1055.75,203.5,50.75,507.75,-825.0,23.5,6
-1016.75,699.5,839.0,-110.0,-206.75,302.5,-316.0,-27.0,6
-1094.0,866.75,525.5,-783.0,-188.0,166.75,47.75,-73.5,6
-843.5,1019.25,298.25,-1648.0,-124.0,-106.0,252.0,-163.5,6
-898.5,934.75,136.0,-1690.5,58.0,-16.25,359.25,-476.5,6
-1702.5,109.5,504.5,-967.5,1093.0,363.5,84.25,-1095.0,6
-2504.75,-774.75,906.75,-215.75,1076.0,260.0,73.25,-1163.0,6
-2375.0,-837.25,917.25,148.25,809.5,-155.25,90.5,-1085.75,6
-2058.75,-785.75,799.0,701.25,728.25,-528.0,-119.0,-1077.25,6
-2058.5,-946.25,419.0,1827.0,122.25,-838.25,-7.5,-988.0,6
-1926.75,-844.5,218.0,1436.25,-260.0,-1104.75,279.75,-890.75,6
-1893.5,-806.0,148.25,653.5,-277.5,-1294.25,412.5,-791.25,6
111.0,-779.0,159.5,-457.75,-365.25,-1362.5,549.0,-771.25,6
91.0,-739.5,197.0,-613.75,-78.5,-1453.25,463.0,-509.25,6
-85.0,-693.0,328.75,-441.0,-594.75,-1640.0,-13.5,-228.0,6
17.0,-355.0,448.5,-532.75,-1584.25,-1563.0,-85.25,-51.75,6
-121.25,-171.25,187.5,206.25,-2183.5,-1554.5,225.75,55.75,6
-167.75,53.75,-207.0,783.0,-2302.0,-1745.75,407.0,301.5,6
-161.5,128.75,-539.5,1384.25,-2265.0,-1798.25,649.5,526.75,6
-946.5,154.75,-632.0,1328.5,-2148.0,-1966.25,676.25,608.25,6
-1775.0,118.5,-449.75,1343.25,-1829.5,-2136.75,634.25,863.0,6
-1814.0,118.75,-372.5,655.5,-1777.5,-2098.0,532.75,1154.5,6
-475.75,168.25,-286.5,17.0,-1245.0,-1929.0,335.75,1290.75,6
287.0,198.75,-135.25,109.25,-998.5,-1797.0,456.75,1337.0,6
635.0,243.75,-53.25,904.75,-829.25,-1657.25,437.75,1324.5,6
806.25,234.0,103.5,816.5,-879.75,-1595.5,325.0,1348.75,6
934.0,285.75,234.0,725.5,-925.0,-1494.5,264.75,1490.75,6
230.25,298.75,-67.75,729.0,-1005.5,-1222.25,342.0,1450.75,6
-1066.25,309.5,-443.25,-1145.5,-1547.25,-878.25,530.0,1369.75,6
-978.25,291.0,-398.25,-1120.5,-1450.0,-586.75,532.0,937.75,6
-1004.0,240.75,-267.5,-1252.5,-1401.0,-249.25,522.75,451.75,6
-926.75,137.25,-296.0,-1240.5,-1388.75,51.5,561.25,108.5,6
-405.5,43.5,-391.25,-1235.0,-1345.25,263.0,374.25,-43.75,6
1230.75,38.25,-413.0,729.0,-1153.0,293.5,-110.0,-0.25,6
1292.25,92.0,-282.25,775.25,-952.75,223.0,-309.25,40.5,6
1261.5,191.5,-47.25,780.75,-891.25,146.5,-194.0,132.75,6
1232.5,223.25,246.5,754.25,-880.25,222.5,-64.0,272.0,6
1156.25,173.0,396.0,-601.0,-655.0,507.25,107.0,346.25,6
-221.25,109.0,344.75,-1311.25,-570.0,653.5,264.25,388.75,6
-721.75,96.5,245.75,-1309.5,-543.0,842.5,622.5,336.0,6
-458.0,71.0,-68.5,675.75,-401.0,861.75,930.0,268.0,6
63.75,36.75,-377.5,701.5,-396.25,865.25,941.0,261.25,6
650.75,21.75,-271.75,735.5,-385.5,922.0,871.5,327.75,6
1057.0,-13.25,-99.25,-845.75,-434.0,875.0,874.25,302.25,6
1220.5,-37.25,-70.0,-1316.25,-428.25,707.75,912.25,237.5,6
806.0,0.25,-73.0,-1304.5,-374.5,405.75,713.75,210.0,6
233.0,147.75,98.0,-1312.25,-251.0,136.0,308.25,128.5,6
-536.25,288.25,710.0,-1298.5,-114.5,-110.5,-126.5,111.25,6
-594.25,283.75,1090.0,-106.5,-68.0,-193.5,-476.25,73.0,6
-569.25,176.0,289.5,804.5,26.5,-201.5,-517.5,14.75,6
-529.25,95.75,-411.5,725.0,467.75,-187.75,-242.25,4.25,6
-560.75,50.0,-228.0,649.0,773.25,-358.5,480.0,158.75,6
-554.0,39.75,-72.0,646.25,1053.75,-499.25,911.75,440.75,6
691.5,-39.0,-186.0,876.25,1728.0,-397.25,397.25,690.5,6
1192.0,-193.5,-394.5,1157.5,1905.75,-245.25,273.75,884.25,6
1051.5,-208.75,-397.75,1109.75,1444.75,-83.5,952.0,981.0,6
1032.0,-177.0,-400.75,-356.25,1333.25,80.25,1414.0,1004.5,6
1066.25,-116.0,-593.5,-1146.0,1453.5,580.75,1074.5,980.75,6
80.25,-65.25,-606.25,-1193.5,1711.5,932.75,810.5,908.0,6
-1135.25,-91.75,-76.5,-1207.75,1613.25,474.5,801.75,805.25,6
-1139.5,-36.5,46.5,-1340.75,1427.75,-30.75,311.25,577.25,6
-1095.0,3.5,61.25,-1378.25,1393.25,-374.5,312.75,227.75,6
-1083.75,32.75,177.0,-1446.0,1158.5,-231.75,893.75,-145.25,6
-437.0,52.0,-5.75,-1451.0,929.0,212.5,877.5,-473.5,6
-338.0,64.75,237.5,-1434.0,735.75,84.5,297.0,-707.0,6
-477.25,12.75,-311.5,-624.75,1033.0,-105.75,162.0,-864.25,6
-720.75,-39.0,-1146.75,295.25,1204.25,-168.75,376.75,-1127.5,6
-845.75,-43.5,-1401.75,371.0,1312.25,88.5,742.25,-1176.5,6
-725.25,-104.0,-1176.75,797.5,1143.25,369.75,1050.0,-1166.75,6
-413.75,-59.0,-844.5,763.5,665.0,132.5,1016.5,-842.5,6
33.25,63.0,-825.5,665.25,-3.75,211.0,438.25,-248.0,6
527.75,132.0,-514.0,821.0,-417.75,456.25,-14.25,111.75,6
501.0,-75.5,-247.25,1343.25,243.0,766.75,-221.75,455.5,6
89.25,-261.25,-117.0,-319.5,221.5,644.0,-454.0,716.75,6
-141.25,-218.5,-433.25,-298.75,-63.75,280.5,-587.5,708.25,6
-204.5,-178.25,-643.75,-441.75,6.25,56.5,-1078.75,700.75,6
-185.5,-135.0,140.25,-486.75,228.75,-186.5,-1273.5,650.0,6
-226.5,-233.0,847.75,373.5,1056.25,-250.5,-797.75,551.5,6
-39.75,-149.5,1105.25,1348.5,1002.25,-180.75,-197.5,318.5,6
93.0,3.0,1396.5,1214.0,1552.25,2.5,-64.0,395.0,6
160.0,20.75,1334.0,1196.0,1765.0,-35.25,-369.0,359.0,6
152.0,-42.75,1145.25,-815.25,1593.5,-229.0,-615.75,-189.0,6
69.0,-110.5,854.0,-842.25,1382.25,-415.5,-517.25,-643.75,6
56.75,-153.25,759.0,-956.75,1402.0,-532.5,-318.5,-1011.25,6
-76.75,-225.25,726.25,-1088.0,1705.5,-755.0,-104.25,-1269.0,6
-170.75,-123.75,397.5,-1417.75,1167.5,-1019.5,-80.25,-1219.5,6
-285.5,-162.25,37.75,493.25,979.25,-1091.5,30.25,-528.75,6
-289.5,-113.5,-216.75,72.0,411.25,-1436.25,180.0,-22.25,6
-151.75,-34.25,-249.0,-932.5,163.0,-1597.0,316.25,-164.75,6
-35.0,-12.25,-591.25,-949.0,155.5,-1359.5,428.25,-645.25,6
51.75,11.5,-624.25,-946.5,333.25,-1290.0,218.5,-878.75,6
38.25,-26.5,-692.5,-707.75,245.5,-1237.0,170.25,-863.5,6
40.5,40.25,-287.0,718.5,-169.75,-1085.75,258.5,-686.25,6
85.5,0.5,526.5,1141.25,31.25,-966.25,290.0,-386.25,6
82.5,-46.75,884.0,1308.0,-140.25,-1010.75,354.5,-133.5,6
139.0,-29.25,1039.25,1296.0,-454.25,-1057.75,461.25,-90.25,6
197.25,-17.0,348.25,375.75,-412.75,-964.5,734.0,-154.0,6
203.5,-3.75,-546.5,-741.5,-544.5,-621.5,746.25,-158.5,6
237.75,33.5,-432.5,-926.25,-765.0,-201.75,624.25,-175.25,6
218.25,65.5,495.25,-970.75,-900.75,111.25,616.5,-161.0,6
221.75,95.25,899.75,-941.75,-973.75,446.0,588.0,-290.5,6
304.25,119.75,964.0,635.0,-580.0,883.25,796.75,-415.0,6
236.0,43.75,1033.75,639.25,0.75,1042.75,544.75,-414.75,6
164.5,34.0,-758.75,529.75,649.75,1032.25,33.0,-363.0,6
253.25,-1.0,-950.75,592.75,1153.0,1024.25,-184.5,-339.25,6
287.25,-47.0,-133.5,673.0,1147.0,1013.5,-465.25,-306.0,6
251.5,-37.25,648.25,293.75,1307.0,993.75,-589.75,-157.75,6
302.25,-40.25,913.5,499.0,1185.25,1019.25,-341.5,-138.0,6
348.0,14.25,1005.25,311.25,1036.5,1103.75,197.0,-150.25,6
339.25,43.0,945.5,-42.0,1131.0,1187.25,349.0,-132.0,6
366.5,16.25,361.5,-23.75,1412.25,1236.25,403.5,-112.0,6
453.5,-0.5,-236.25,-500.0,1515.25,1268.5,277.25,-94.5,6
484.75,-4.75,-700.75,-716.0,1729.75,1262.5,-103.25,-103.25,6
173.5,-93.25,-693.75,-834.25,1731.5,1219.0,-394.25,-30.0,6
-18.0,-38.5,-441.5,-1292.5,1150.75,1116.25,-281.25,85.25,6
37.5,73.0,-652.0,-1430.75,919.0,1036.75,-114.25,189.25,6
68.25,166.0,-1023.25,-983.0,622.5,889.25,-201.0,235.0,6
267.75,339.25,-982.0,-795.5,509.5,557.5,-226.25,323.75,6
421.0,459.25,-720.25,-293.25,543.5,158.25,-437.75,384.25,6
446.25,487.5,-619.25,225.75,577.25,-53.5,-458.25,660.25,6
566.0,636.5,-781.25,172.0,589.25,197.0,-395.0,920.0,6
549.75,603.75,-817.25,194.75,826.75,565.25,-589.25,720.25,6
376.25,272.0,-556.25,496.75,1738.25,1014.75,-692.5,315.25,6
85.25,-114.75,-401.5,916.25,2041.0,973.0,-724.75,232.25,6
64.0,116.25,-652.0,503.0,626.75,14.25,-741.75,594.0,6
198.75,512.5,-846.25,-10.75,517.0,-363.25,-1051.5,626.75,6
250.75,401.5,-635.75,-422.25,991.5,-289.25,-1311.5,359.5,6
278.5,209.5,-628.75,-408.5,1094.75,-602.0,-1438.25,91.5,6
6.75,-232.5,-226.25,312.75,1649.75,-1.25,-1598.5,-626.25,6
-721.25,-981.75,467.75,656.0,1291.25,260.5,-1689.25,-822.75,6
-752.75,-917.5,725.75,728.0,887.75,64.25,-1603.75,-632.25,6
-519.0,-689.75,570.5,344.5,373.5,-247.5,-1381.75,-362.25,6
-268.75,-488.0,243.0,153.25,-226.5,-346.25,-1245.75,-379.5,6
-288.25,-558.25,179.25,195.25,532.25,-265.75,-1144.0,-346.75,6
-387.5,-589.0,160.5,22.5,37.5,-307.25,-1122.75,-131.75,6
-382.0,-257.0,-33.25,-405.75,-501.5,-371.25,-1142.75,-28.5,6
-50.75,-235.0,-221.0,-189.75,14.75,31.25,-1208.0,-35.75,6
-94.0,-282.0,-291.25,-28.5,-75.5,243.0,-1259.0,-4.75,6
-67.0,-94.75,-522.75,-277.5,43.25,735.5,-1180.5,-17.25,6
18.25,-59.75,-775.25,-204.0,-17.0,801.25,-1018.5,13.75,6
400.75,120.0,-849.0,-366.5,-752.75,233.25,-932.0,157.5,6
688.5,334.75,-662.75,-480.5,-1214.75,-373.5,-886.5,460.75,6
826.75,809.75,-804.5,-613.75,-1193.0,-999.25,-644.5,789.0,6
548.75,854.0,-1667.0,-543.0,-790.0,-1098.5,-500.0,833.5,6
-170.25,684.25,-2174.5,-299.5,-488.0,-851.75,-490.25,872.5,6
-722.75,625.25,-1396.75,-156.75,-32.25,-750.75,-532.5,894.5,6
-1235.75,340.25,-116.75,-241.25,129.5,-435.25,-504.75,686.25,6
-1497.0,187.75,676.75,-329.5,-177.25,-424.75,-247.5,272.0,6
-1912.75,60.75,1571.5,-17.75,-26.0,-1214.75,-121.25,-134.5,6
-2074.5,-44.75,2357.25,139.75,-210.25,-1814.0,17.25,-393.5,6
-2051.25,-63.0,2469.5,250.25,-673.0,-1881.25,98.75,-707.5,6
-2171.5,-134.0,2301.0,166.75,-1294.75,-1723.75,75.75,-849.0,6
-913.75,-96.5,2119.25,297.5,-1547.0,-1796.0,47.0,-944.75,6
225.0,-115.75,1643.25,528.75,-1490.0,-1821.5,27.25,-1055.75,6
534.25,-100.75,813.25,512.75,-1446.25,-1530.25,158.0,-899.75,6
775.5,-180.25,549.75,680.75,-1363.5,-844.25,333.5,-673.75,6
1099.0,-216.5,255.25,694.25,-1214.5,380.5,404.5,-515.5,6
1257.25,-218.5,-45.0,531.25,-1011.5,446.0,374.5,-325.0,6
1016.75,-223.5,-405.5,359.25,-1175.25,609.25,379.5,-172.0,6
964.5,-221.25,-892.25,364.5,-1076.25,929.5,315.5,-26.25,6
804.25,-191.5,-951.0,472.25,-984.5,1013.75,388.5,46.5,6
828.25,-177.25,-1170.5,635.5,-895.75,754.0,729.75,8.75,6
923.75,-187.75,-1183.25,665.25,-727.5,776.75,970.75,84.5,6
1048.5,-131.75,-1166.25,622.75,-691.5,913.5,965.0,167.75,6
909.5,-235.25,-911.75,654.25,-586.75,1200.5,649.25,382.75,6
387.5,-530.75,-1109.75,625.5,-451.75,1717.75,122.0,562.5,6
-206.0,-529.75,-931.75,736.25,-510.0,1820.0,-317.5,73.0,6
-466.5,-441.5,-486.5,409.0,-550.0,1717.0,-409.25,-40.25,6
-580.25,-427.75,-54.0,-274.5,-541.5,1733.75,-148.75,154.25,6
-769.0,-384.5,757.25,-688.75,-536.5,1735.75,-287.5,125.25,6
-810.25,-310.25,786.5,-702.25,-555.5,1646.25,-380.5,170.25,6
-744.75,-257.75,315.5,-550.5,-850.75,1412.5,294.75,222.5,6
-858.25,-167.5,183.0,-399.25,-1039.0,939.5,1480.25,48.0,6
-787.25,-129.5,282.75,-253.5,-1055.75,557.5,2205.25,79.0,6
-993.75,-28.75,593.0,18.75,-1085.75,237.0,2537.5,-102.25,6
-1186.75,3.75,908.75,164.25,-1311.5,-103.0,2457.75,-71.75,6
-886.75,87.0,776.25,741.75,-1667.5,-110.75,2015.75,-144.0,6
-276.0,130.0,403.5,1190.25,-1822.25,-580.0,1408.5,-67.25,6
191.0,176.5,-205.0,1148.75,-1597.0,-1133.25,240.0,-40.75,6
325.0,160.0,-546.25,1101.75,-1385.75,-1206.5,-637.0,-69.75,6
-34.75,145.75,-717.75,1097.25,-1626.25,-507.5,-283.75,-16.75,6
-19.0,189.75,-886.5,852.25,-1545.75,67.75,694.5,-20.25,6
405.0,266.0,-663.5,556.5,-1238.75,-929.5,969.0,54.25,6
818.75,295.5,-31.5,-17.5,-1095.5,-1123.75,820.0,21.5,6
1474.0,209.5,551.75,-750.5,-792.5,-1127.25,1404.75,54.75,6
1217.25,218.0,501.0,-840.75,-614.5,-1344.5,1202.25,-1.5,6
1129.25,225.5,443.75,-834.25,-809.5,-1432.5,68.0,-67.5,6
963.0,250.25,476.75,-849.25,-1317.75,-1426.5,-596.25,-103.0,6
86.75,193.75,751.75,113.75,-1999.5,-1420.25,-708.75,-164.25,6
-15.75,87.75,1082.75,330.25,-2257.5,-1164.0,-642.5,-257.5,6
110.75,9.0,615.25,-110.25,-1762.25,-878.0,249.25,-322.75,6
346.5,-29.5,535.25,-495.0,-1642.5,-823.75,1170.25,-341.25,6
220.5,5.75,921.0,-969.25,-1040.0,-538.75,792.5,-422.25,6
293.0,109.75,837.0,-1205.75,-182.25,-661.0,928.75,-547.0,6
67.25,196.0,125.5,-1594.25,199.25,-803.75,1347.0,-659.0,6
-1422.0,194.5,-102.75,-1647.75,261.25,-1015.25,1016.0,-657.25,6
-1864.25,203.25,197.5,-1327.25,37.75,-881.5,781.25,-634.25,6
-1934.25,162.5,935.0,-784.25,139.25,-412.75,243.75,-570.0,6
-1977.5,106.5,1269.0,641.0,423.25,88.25,-341.5,-445.75,6
-1715.0,95.0,1288.75,760.0,319.25,346.5,-185.0,-225.0,6
-931.75,101.25,705.5,690.75,-93.25,670.25,499.25,-141.0,6
-394.5,57.0,-899.75,634.75,-351.0,815.25,1153.5,-206.5,6
337.0,-10.25,-1260.25,171.0,-536.0,675.5,934.25,-37.25,6
278.5,-64.75,-1441.25,-296.5,-736.0,663.75,155.0,153.25,6
276.75,-97.5,-1441.75,-1206.75,-823.5,905.5,-232.25,261.25,6
862.25,-45.75,-1615.5,-1297.25,-920.75,1290.25,-186.0,307.5,6
2130.0,43.75,-1230.5,-1152.25,-764.25,1233.75,211.25,183.75,6
2330.0,148.5,-57.5,-1041.25,49.5,719.75,1203.0,172.25,6
1947.5,109.5,1430.75,63.0,1474.25,416.75,1527.25,202.0,6
2042.75,-10.0,1878.5,954.5,2193.25,470.5,1282.75,276.25,6
2150.25,-70.5,1706.25,977.75,1825.5,540.0,1038.25,267.75,6
1812.75,-105.0,1582.0,951.75,989.5,334.0,511.5,222.5,6
1412.0,-106.5,-698.0,310.25,182.75,626.0,-535.25,261.25,6
184.5,-116.0,-1140.75,-297.25,57.0,762.0,-947.25,305.75,6
-782.0,-107.0,-1195.5,-1070.5,-88.25,262.25,-1012.75,614.75,6
-269.25,-128.0,-1066.25,-821.0,-289.75,97.25,-1141.5,779.0,6
435.0,-113.75,-994.5,157.75,-285.5,62.0,-554.75,809.5,6
373.5,-58.0,-946.0,914.25,-289.25,216.75,322.0,756.5,6
362.75,-21.5,-896.75,1112.0,-133.75,170.0,1021.5,529.25,6
-1754.5,22.0,-797.75,904.75,83.25,259.75,1325.5,514.5,6
-1855.75,51.75,-666.5,46.75,81.0,681.75,854.25,422.25,6
-2033.0,121.25,-746.25,-923.25,129.25,761.5,439.25,419.25,6
-2012.5,209.0,-839.25,-955.75,431.75,900.0,414.0,698.0,6
-1895.75,241.5,-1000.5,-584.0,589.25,995.25,19.25,992.25,6
-1866.5,196.75,-907.5,-673.0,495.75,1010.5,-1007.25,1194.0,6
-1316.5,181.25,-387.25,-689.0,423.75,1186.0,-2000.75,1420.5,6
-296.25,119.0,344.75,-411.0,440.0,1187.0,-1748.75,1556.25,6
511.75,30.25,642.75,-653.75,382.5,1087.75,-1274.5,1605.0,6
478.5,-10.25,846.25,-650.5,455.0,1143.25,-327.75,1576.25,6
292.25,-5.25,1200.75,686.25,534.25,1293.75,816.75,1460.75,6
-2009.25,19.0,1425.75,996.0,695.75,1303.0,1438.25,1386.0,6
-2044.0,21.0,1537.5,1084.75,821.25,1301.0,1686.0,1301.75,6
-2040.0,23.75,1447.5,981.25,1059.25,1468.25,1371.5,1028.0,6
-1240.25,-99.75,1238.5,130.0,1390.5,1695.25,1149.25,841.0,6
227.25,-191.5,-134.75,-834.25,1400.5,1872.25,566.75,764.75,6
2097.0,-235.5,-718.75,-792.0,1183.25,1703.75,-408.0,825.0,6
2368.5,-210.25,-737.25,714.0,837.75,1584.25,-886.75,732.75,6
2314.0,-103.75,-694.25,1000.5,725.75,1752.0,-972.25,575.0,6
2362.75,-164.25,-481.5,748.75,335.25,1670.25,-811.25,395.0,6
1294.75,-221.75,554.0,-234.25,99.0,1280.0,98.25,206.25,6
474.25,-186.0,1602.0,-225.25,-45.75,1054.5,-10.0,200.5,6
391.25,-154.5,1200.0,-552.75,-467.5,1075.5,-419.5,360.5,6
1371.5,-89.0,505.5,-1197.25,-305.5,1077.5,-301.25,604.75,6
828.0,16.75,160.5,-1272.5,223.5,806.5,-244.5,815.25,6
-977.75,60.25,408.25,-1207.5,72.75,364.5,-226.25,950.5,6
-1183.75,55.25,991.75,0.0,-339.75,-86.75,-204.25,973.5,6
-1985.5,8.25,1437.75,595.0,-392.25,-520.5,-282.5,696.0,6
-2198.5,40.75,1327.0,554.0,-703.75,-841.75,-289.0,420.75,6
-1631.0,122.5,294.75,765.0,-754.25,-1096.75,-114.25,246.75,6
578.75,87.75,-183.75,361.5,-957.5,-1025.75,-78.5,26.5,6
1447.75,52.0,-831.5,-55.25,-1021.75,-978.0,-382.0,-98.0,6
864.5,-14.75,-1546.75,-536.75,-195.5,-1203.75,-746.75,-293.5,6
-277.25,-30.5,-1962.75,-812.25,221.5,-1365.25,-1201.25,-551.5,6
-2332.5,72.0,188.0,-586.25,502.0,-1382.75,-1490.25,-926.25,6
-2260.0,185.0,805.5,-697.25,450.5,-1670.75,-1620.75,-1244.25,6
-112.75,263.75,981.75,-258.0,-30.0,-1786.75,-1494.5,-1410.5,6
-59.75,203.5,2039.0,714.5,26.0,-1689.0,-1080.0,-1545.25,6
8.75,13.75,2287.25,970.0,134.0,-1631.0,-716.75,-1545.75,6
-12.5,-176.0,2026.5,1107.5,304.5,-1676.0,-582.75,-1622.25,6
-46.5,-280.75,638.5,1088.75,71.75,-1755.25,-566.0,-1643.25,6
572.0,-248.0,239.5,1058.25,-196.5,-1633.25,-186.0,-1669.5,6
1331.25,-216.5,-714.75,656.75,-207.0,-1603.25,272.0,-1469.5,6
535.0,-343.0,-1446.75,-915.0,-354.0,-2088.75,752.0,-1004.0,6
872.25,-187.0,-1594.5,-1588.25,-610.25,-2293.75,864.0,-1048.5,6
1392.5,690.0,-1700.25,-1440.25,-734.25,-1694.0,1030.0,-1227.25,6
694.25,1103.25,-1263.75,-1478.25,-705.25,-1024.0,1321.5,-1284.5,6
929.25,934.0,-846.25,-1393.25,-1235.25,-297.25,1054.0,-1579.25,6
597.75,849.25,-889.5,-345.25,-1351.25,179.0,598.25,-1499.0,6
390.75,582.75,-119.25,490.0,-922.25,473.75,-467.5,-1396.75,6
221.25,184.0,-11.25,179.5,-236.5,807.75,-1370.25,-1319.75,6
-186.0,-302.75,425.0,280.75,216.5,502.75,-1552.75,-1240.0,6
-218.75,-308.5,1547.0,-343.5,746.75,4.25,-1747.5,-1045.5,6
-241.5,-277.75,931.5,-571.0,1329.0,-316.25,-826.75,-766.25,6
-577.5,-460.75,361.75,-243.75,1113.0,-502.75,182.25,-828.0,6
-353.0,-93.25,-624.0,-684.25,150.0,-328.0,536.75,-954.75,6
244.25,194.25,-917.5,9.25,-921.0,91.75,617.5,-1136.5,6
369.0,420.25,-910.5,824.75,-1351.75,-45.5,350.75,-1380.75,6
476.75,574.5,-1083.0,806.0,-1726.0,-167.0,60.25,-1494.25,6
416.5,461.0,-1216.75,1020.0,-1988.0,-6.5,-438.0,-1498.75,6
454.25,399.5,-897.5,1015.75,-1630.5,-42.75,-676.0,-1341.0,6
885.25,231.5,-607.25,1063.0,-1048.75,12.75,-314.25,-1067.0,6
949.75,25.25,-669.75,224.5,-566.0,263.0,-199.25,-830.75,6
657.25,-37.75,-338.25,-328.0,-393.5,475.0,59.5,-585.75,6
381.75,16.5,182.5,-749.5,-315.75,480.25,349.0,-389.5,6
-305.75,24.75,741.0,-821.5,-153.0,484.0,298.0,-296.25,6
-1419.75,46.25,1061.75,-914.0,-102.25,519.5,103.0,-177.0,6
-1661.5,177.75,1138.75,-330.75,4.5,476.75,-192.25,-44.0,6
-1861.0,281.0,1439.5,-72.75,-162.5,459.5,-408.5,106.25,6
-1797.5,136.25,1423.25,28.0,-300.75,616.75,-426.25,261.0,6
-1751.0,-271.0,999.25,150.25,-132.75,516.25,-321.0,455.0,6
-1702.0,-670.75,597.25,-268.5,374.25,135.5,-164.25,658.25,6
-1449.75,-983.5,200.0,-913.25,1123.25,442.75,-19.75,746.5,6
-1076.0,-1020.0,-134.75,-964.25,1121.5,1451.5,32.0,769.5,6
5.75,-918.0,166.5,-632.5,974.25,1943.0,213.5,791.0,6
1288.5,-739.75,687.0,1114.5,570.5,1812.25,437.75,871.5,6
1307.75,-478.5,722.25,1081.25,-74.25,1034.25,512.5,932.75,6
1031.25,-394.25,368.25,996.75,-887.5,-146.25,350.0,1005.25,6
1391.0,-183.25,99.75,972.0,-1011.5,-206.0,212.0,1113.75,6
1668.5,-75.25,-72.0,996.0,-1069.75,-220.0,149.5,1084.5,6
2034.5,399.0,-125.25,762.0,-1329.0,58.25,198.0,1037.5,6
2026.25,791.75,140.25,592.5,-1426.0,741.75,399.25,1087.0,6
1760.75,802.0,388.5,552.5,-958.75,607.75,433.75,939.0,6
-190.75,502.0,669.5,812.25,-103.25,700.5,40.0,538.5,6
-1020.25,-498.75,569.25,969.75,914.0,784.5,-460.25,493.75,6
188.25,-1586.75,-126.5,894.25,838.5,851.5,-712.5,566.25,6
284.5,-1655.5,-492.0,620.5,668.25,726.75,-753.0,617.5,6
346.5,-1439.75,-557.25,531.0,672.75,1197.0,-487.75,723.75,6
298.5,-1010.75,-271.5,365.5,410.5,1651.75,-94.75,748.5,6
303.0,-394.5,0.25,230.5,-307.5,1608.0,239.5,810.5,6
174.5,684.75,74.5,19.75,-1094.5,1898.5,472.75,865.5,6
525.25,980.75,167.0,-179.5,-702.75,1864.5,609.0,774.5,6
-1134.0,959.25,60.75,-186.75,-82.25,1743.25,879.75,693.75,6
-600.75,904.25,106.25,-170.0,718.0,1332.5,951.0,519.5,6
-734.5,574.25,141.5,-505.75,1244.0,1177.0,1260.25,302.0,6
-947.0,-717.25,228.0,-1045.5,933.25,866.75,1347.75,115.75,6
-1037.0,-949.0,105.25,-1371.5,782.75,826.5,1446.0,10.0,6
-1196.25,-955.5,44.0,-898.0,889.25,1040.5,1480.25,-78.5,6
-1236.25,-1000.25,174.5,-552.0,948.25,1099.75,1542.5,-152.0,6
-1224.0,-942.75,102.25,-688.0,823.0,1420.5,1624.5,-293.75,6
-759.5,-503.5,99.25,-235.0,698.0,1629.75,1348.0,-469.0,6
-421.25,772.25,38.75,-172.75,593.0,1647.75,1171.5,-627.5,6
-970.75,1584.5,159.75,-230.0,360.5,1597.5,1062.0,-755.75,6
-672.25,1756.25,237.0,-183.0,-1.25,1396.0,727.5,-796.75,6
373.25,1908.75,-128.25,-247.5,-294.25,1186.0,786.75,-739.5,6
879.5,1921.75,-410.5,-88.5,-75.0,487.25,748.75,-379.75,6
621.5,1477.75,-357.75,-247.5,-337.5,125.5,358.25,8.75,6
501.25,854.0,-246.25,-346.75,-738.5,558.75,-94.0,475.75,6
547.5,-314.0,-113.25,-387.25,-733.5,404.75,-401.25,954.5,6
687.25,-1076.75,-111.25,-484.5,-590.5,469.5,-420.5,687.0,6
1115.75,-1363.5,-101.25,-492.5,-127.75,-367.75,-207.75,576.0,6
1637.0,-1392.5,19.25,-512.25,193.5,-1925.5,6.0,723.75,6
1816.0,-302.0,86.5,-629.0,230.0,-1888.75,169.0,899.0,6
1449.75,1199.25,112.0,-628.5,265.25,-1858.25,-21.0,1034.5,6
969.25,1304.5,158.25,-534.75,366.5,-1808.75,-430.0,1063.5,6
565.5,1181.0,284.0,-484.0,605.5,-1720.75,-864.25,1053.5,6
394.0,1023.5,353.25,-214.25,593.0,-1525.0,-1027.75,1144.0,6
394.0,602.75,342.75,7.0,158.75,-1355.0,-904.5,1246.5,6
543.5,-359.75,193.5,96.0,313.25,-1170.0,-883.5,1153.5,6
597.75,-1813.75,-131.25,-70.5,362.0,-742.5,-1042.75,949.25,6
602.25,-1804.75,-559.75,-74.0,55.25,-210.0,-1008.0,679.0,6
943.75,-1522.5,-836.75,208.75,56.5,203.75,-583.0,156.5,6
839.5,-2007.25,-1304.25,-10.5,1.5,635.75,-469.5,-500.25,6
831.0,-1886.75,-1260.0,-294.25,411.75,923.0,-547.75,-735.0,6
315.75,-1374.5,-881.5,-517.25,838.0,1090.25,-630.5,-649.0,6
-768.75,-548.0,-358.5,-1036.0,747.5,1210.75,-560.0,-718.5,6
-507.0,628.5,71.75,-1080.75,986.5,1255.25,74.25,-197.5,6
-500.75,204.75,-9.75,-707.0,1383.0,1347.5,615.75,47.25,6
-224.75,-277.0,-670.0,-160.0,1272.75,1310.25,585.0,-429.75,6
338.25,-111.5,-733.25,296.0,1163.75,1279.5,179.5,-706.75,6
888.0,740.25,1.5,494.25,1168.5,1132.25,-318.0,-854.75,6
885.75,1566.5,713.25,955.0,1002.75,1015.5,-501.25,-673.5,6
1038.0,1925.25,1050.0,598.75,199.75,938.25,-650.0,-676.75,6
1008.75,1687.5,652.25,51.0,15.5,894.0,-1137.25,-994.75,6
584.25,1453.75,-338.75,-216.25,-483.0,901.25,-1534.75,-1255.25,6
667.0,1255.75,-246.75,-498.25,-526.0,244.0,-1479.0,-1451.0,6
315.25,755.75,354.5,-37.5,-277.75,-614.25,-1141.5,-788.25,6
38.25,200.0,525.0,-55.5,-1225.75,-1017.75,-937.75,-367.25,6
-46.75,-1566.5,889.0,7.75,-1603.0,-1000.75,-1106.0,-889.75,6
7.0,-1902.5,1001.75,240.5,-1556.0,-936.0,-1223.25,-652.0,6
306.25,-1724.25,1142.5,330.75,-1425.25,-939.25,-1214.75,-312.5,6
145.75,-2080.75,1241.0,577.75,-1185.0,-974.0,-1093.5,-391.0,6
1.25,-2001.75,1395.5,724.5,-761.25,-952.25,-845.25,325.75,6
53.0,-565.0,1553.5,789.0,144.75,-937.75,-585.0,-0.5,6
-143.5,33.25,1373.25,688.25,1595.5,-910.5,-546.5,-258.5,6
-630.75,443.0,905.75,768.0,1942.75,-892.5,-204.0,-5.5,6
-1050.5,39.75,525.25,801.75,1930.75,-879.5,12.75,-242.75,6
-1215.75,-76.0,274.0,1096.25,2091.75,-834.75,-203.0,-521.75,6
-1028.0,258.25,-50.25,1027.5,1663.75,-857.5,-468.25,-903.0,6
-564.75,552.5,-377.0,564.75,1673.0,-947.75,-910.0,-694.25,6
-136.0,994.75,-445.75,205.75,1897.25,-1110.75,-1080.5,-366.25,6
-291.75,1198.5,-556.0,-86.25,1864.75,-770.25,-796.5,-437.75,6
-655.75,1359.5,-721.25,-278.75,1524.25,-233.75,-427.25,-416.0,6
-743.0,1305.5,-750.0,-579.5,1120.75,14.25,223.5,-560.5,6
-415.25,1392.25,-783.0,-652.0,1178.0,395.0,396.75,-948.25,6
-12.75,1422.5,-757.25,-625.5,1390.0,740.5,329.0,-1087.0,6
-251.5,1125.75,-635.0,-446.25,1321.5,756.75,245.5,-1088.0,6
-64.5,716.25,-460.5,-352.75,890.25,681.75,296.0,-1150.5,6
138.5,395.0,-424.25,-236.75,445.5,620.25,411.5,-1212.0,6
-166.0,181.0,-521.5,-88.75,-272.5,561.25,387.75,-1215.0,6
-433.0,92.75,-579.75,-46.5,-552.5,594.25,395.0,-1245.5,6
-615.25,80.75,-737.25,-0.5,-821.5,663.75,342.25,-1238.75,6
-486.75,-183.0,-953.75,-77.25,-1043.25,787.0,133.25,-1182.25,6
181.75,-326.75,-1000.25,-101.75,-1288.25,1005.25,76.75,-1155.75,6
600.0,-222.25,-993.0,-176.25,-1561.5,1146.25,267.0,-1123.25,6
-293.5,96.75,-976.0,-206.25,-1333.5,1298.25,629.0,-1091.0,6
-299.5,331.25,-851.75,-151.75,-1105.5,1358.25,865.75,-1099.5,6
185.5,217.5,-718.25,-137.25,-991.25,1280.25,878.0,-1080.75,6
-17.0,-11.0,-427.0,-182.0,-1015.75,1248.75,733.0,-1048.0,6
-50.25,-333.0,-264.5,-251.75,-984.75,1202.25,766.75,-1094.5,6
-726.25,-564.25,-296.0,-316.0,-924.5,1003.25,1010.75,-1153.25,6
-923.5,-703.0,-331.25,-339.0,-732.5,657.5,1200.75,-1213.25,6
-780.75,-892.75,-409.0,-253.25,-404.75,513.0,1109.0,-1252.0,6
-892.0,-866.5,-379.75,-259.0,-183.5,290.0,994.5,-1215.5,6
-1077.5,-444.0,-413.5,-306.75,-54.0,104.0,1180.75,-1212.25,6
-980.5,-200.0,-347.0,-296.0,143.75,15.5,1309.75,-1242.5,6
-973.5,-62.0,-126.75,-369.25,274.0,-187.25,1293.75,-1062.25,6
-1012.25,50.75,157.0,-479.25,647.5,-395.5,1275.25,-701.75,6
-1015.0,-106.75,468.25,-318.25,1171.25,-796.25,1333.0,-327.5,6
107.75,-281.0,798.0,-67.25,981.75,-1037.5,1347.25,147.0,6
1185.0,-324.0,986.0,-37.75,957.0,-871.0,1303.75,721.5,6
1438.25,-259.75,1126.5,27.5,763.25,-1013.0,1437.0,1154.0,6
1500.5,-257.5,1293.75,114.0,-73.25,-1413.0,1514.0,1427.75,6
1244.0,-331.25,1319.75,152.5,-694.5,-1825.75,1285.75,1389.0,6
969.0,-130.0,1054.5,132.5,-537.5,-2015.0,1119.0,1256.5,6
871.75,299.25,579.5,140.0,-206.75,-1856.75,1027.5,1153.75,6
704.0,464.5,213.75,248.75,922.0,-1642.75,901.0,1019.75,6
-1241.25,409.25,16.5,300.25,2112.25,-938.25,721.75,1098.25,6
-982.25,389.75,-168.75,368.75,1973.75,-567.0,377.0,1138.75,6
-615.5,365.75,-344.5,413.0,1872.25,-261.5,32.75,1252.25,6
10.5,334.0,-436.25,426.0,1604.25,-53.5,-120.0,1358.0,6
-245.5,309.25,-378.25,457.75,1283.5,285.0,53.25,1442.5,6
-1153.25,226.25,-391.75,403.5,1415.0,486.75,321.75,1600.25,6
-1358.0,171.0,-456.25,291.0,935.5,671.25,426.75,1569.75,6
154.75,91.0,-443.25,268.25,221.25,892.25,222.75,1479.0,6
64.25,30.5,-492.75,235.25,-83.25,1025.0,-1.5,1333.25,6
9.25,-15.75,-496.5,171.75,411.0,1079.75,-153.25,1115.25,6
127.0,-22.5,-362.5,126.75,548.5,1127.75,-152.0,858.5,6
676.0,189.75,-452.0,65.0,596.75,1090.5,-32.0,827.75,6
1028.5,769.0,-400.0,-27.0,456.75,1063.0,-204.75,1132.5,6
1543.25,1106.0,-148.0,-107.75,-1999.5,1135.75,-420.75,1365.75,6
2197.5,669.5,-12.25,-137.0,-1421.0,1170.0,-643.25,1435.25,6
2128.5,29.25,164.5,-162.0,-198.25,1215.0,-665.0,1499.5,6
2060.0,-590.5,179.0,-166.5,-814.0,1243.75,-673.0,1632.75,6
1108.75,-654.0,270.5,-149.75,-1413.0,1217.5,-757.25,1978.25,6
-1512.5,-735.25,503.5,-69.0,-1195.25,1231.0,-847.5,2025.75,6
-2129.5,-486.0,688.25,-89.5,-1600.25,1240.25,-910.0,1516.0,6
-2053.25,-603.0,1001.75,-174.75,-1209.5,1218.25,-920.5,1353.75,6
-1997.75,-582.25,849.5,-167.25,865.5,1238.0,-958.25,1307.5,6
-1915.25,-599.25,548.75,-196.5,370.5,1312.0,-962.0,1278.25,6
-1754.75,-617.75,147.25,-258.75,-1598.0,946.75,-975.25,1365.75,6
-1274.5,-317.75,-322.25,-305.0,-2016.0,504.25,-973.75,1365.75,6
-858.25,49.75,-443.25,-316.0,-2053.5,62.25,-955.0,1226.5,6
-479.25,332.5,29.0,-276.75,-746.0,-288.5,-958.75,941.5,6
97.5,316.25,220.25,-276.75,380.25,-592.25,-943.75,717.0,6
690.0,359.25,379.75,-331.0,817.0,-656.5,-1038.5,327.0,6
1170.0,278.75,180.75,-296.25,1444.25,-597.0,-1131.25,-70.0,6
556.5,231.25,57.75,-229.5,1824.75,-612.0,-1142.5,-382.5,6
323.5,181.0,-75.5,-233.75,1426.0,-644.75,-1105.5,-317.0,6
446.25,61.75,-574.25,-166.25,1344.25,-663.5,-1079.75,54.25,6
-211.25,-15.25,-755.0,-184.75,2057.75,-744.0,-1072.5,15.25,6
409.5,-26.5,-727.5,-204.25,2224.75,-784.75,-1058.5,-12.75,6
1042.0,116.5,-752.25,-193.25,2232.25,-858.0,-946.25,57.0,6
929.75,189.0,-892.5,-219.25,1290.5,-886.25,-673.25,-287.75,6
561.25,163.0,-1108.75,-90.25,267.75,-836.25,-503.0,-504.5,6
34.0,136.5,-1337.0,-126.0,-3.0,-852.5,-280.25,-732.25,6
-971.0,170.5,-1547.75,-125.5,425.0,-837.75,-162.25,-1098.25,6
-1365.25,145.75,-1449.5,-169.0,38.0,-887.25,-97.25,-1430.0,6
-349.5,144.75,-1315.25,-318.25,516.0,-1005.0,27.0,-1553.5,6
237.5,121.25,-927.0,-316.0,1375.0,-1045.0,83.0,-1485.5,6
468.5,109.5,-354.25,-391.5,1312.75,-1115.5,-18.25,-1358.25,6
225.5,111.5,293.25,-550.75,717.75,-1288.25,-174.75,-1150.25,6
-184.0,288.75,746.5,-646.25,-12.0,-1527.5,-182.25,-864.75,6
-509.75,492.5,1012.0,-691.0,559.5,-1644.5,-69.25,-811.0,6
-752.0,386.0,1459.25,-510.0,1238.25,-1393.5,-206.25,-1094.75,6
-931.75,63.5,1501.25,-56.0,1885.75,-1104.75,-338.0,-1356.0,6
-743.25,-12.0,941.0,-102.75,1422.25,-1330.5,-201.0,-1214.25,6
-314.25,251.5,209.0,-282.0,815.5,-1555.75,11.75,-1060.5,6
-212.5,349.0,137.5,-52.75,-106.25,-1833.5,215.0,-797.5,6
92.0,338.25,31.5,-69.75,-957.75,-1675.25,324.0,-1001.0,6
72.25,-239.0,428.25,624.25,506.5,-710.0,116.25,-1679.0,6
-575.0,-1143.75,1131.5,1123.25,798.25,-259.25,-106.75,-1909.5,6
-1188.0,-1079.5,882.5,1077.25,846.0,-252.25,-100.5,-1628.75,6
-1249.25,-871.25,535.25,901.25,921.25,-453.25,-185.5,-1405.5,6
-1121.25,-895.75,579.0,857.75,549.25,-547.0,-347.75,-1282.5,6
-809.75,-521.0,589.25,241.5,162.75,-883.25,-448.25,-1009.25,6
-302.0,-289.5,486.75,357.25,1263.5,-737.75,-324.0,-1179.5,6
-60.5,-633.5,444.75,992.0,1842.5,-432.75,76.5,-1084.0,6
539.0,-267.25,-313.75,409.25,125.0,-743.75,644.25,-639.75,6
1226.75,271.0,-921.0,-184.0,-1076.0,-670.0,1024.0,-468.5,6
931.75,124.25,-824.25,146.25,-727.75,-95.25,1016.25,-392.5,6
172.0,-87.25,-1086.0,134.0,-1014.5,71.5,922.0,-202.0,6
-267.0,8.25,-1605.0,-138.0,-578.25,-87.5,965.5,75.0,6
-241.5,323.5,-1814.0,-477.5,-260.0,-172.75,1164.25,484.25,6
103.75,955.5,-1950.0,-653.0,-65.0,-289.75,1234.0,922.5,6
56.75,893.0,-1197.25,-622.0,402.25,-122.25,1031.5,969.25,6
-513.25,720.75,518.25,-724.5,-283.25,9.0,840.0,957.0,6
-1233.5,618.75,950.75,-744.75,-649.5,201.0,722.75,964.0,6
-1074.25,297.5,-632.5,-701.5,-755.0,726.0,490.5,904.0,6
-634.5,165.5,-416.75,-611.0,-629.5,840.25,483.0,747.25,6
-864.75,24.0,961.25,-418.25,-435.25,833.25,717.5,512.25,6
-919.25,-98.75,1304.25,-338.75,386.0,873.5,1065.25,240.25,6
-930.5,-196.5,1274.0,-18.25,695.25,554.25,1420.75,-35.0,6
-572.0,-228.0,1535.5,93.25,749.5,199.75,1604.0,-300.5,6
52.5,-193.25,1446.25,249.75,1319.5,0.5,1309.0,-484.25,6
744.75,-151.75,1667.75,387.25,1419.0,-185.25,1024.25,-657.25,6
1034.25,-46.5,1479.25,353.75,1031.0,-4.25,901.25,-805.5,6
794.5,-24.5,582.5,320.5,1359.5,660.0,923.25,-794.0,6
64.25,-22.0,-51.5,375.75,1318.0,1032.25,1056.75,-692.0,6
-771.75,-0.5,-372.5,448.75,568.75,1024.5,1049.5,-597.75,6
-840.75,10.75,-455.0,455.25,-67.0,1110.25,939.0,-507.75,6
-420.5,11.5,-527.75,455.5,-113.25,1045.0,622.75,-401.25,6
59.5,27.5,-396.0,380.75,36.75,854.25,-226.25,-336.0,6
301.75,-62.25,-101.0,374.25,-345.75,704.25,-287.5,-299.75,6
476.25,-224.25,-210.75,343.25,-52.25,567.75,413.25,-349.25,6
534.75,-377.5,-310.5,350.5,178.75,424.0,589.75,-463.0,6
615.25,-564.5,-428.75,342.25,148.5,367.0,778.75,-216.0,6
350.5,-691.0,-395.75,341.75,188.0,565.25,814.0,370.25,6
-162.0,-595.75,-441.25,443.5,143.0,578.0,401.5,501.25,6
-778.25,-461.25,-240.25,544.25,71.0,482.5,112.5,163.5,6
-1484.25,-404.25,-98.5,548.5,186.25,403.25,-221.25,-32.75,6
-1851.0,-359.0,-120.75,564.0,266.5,289.25,-179.5,-8.25,6
-2140.5,-319.5,-254.0,526.75,385.25,293.25,110.5,224.0,6
-308.5,-295.0,-172.75,356.25,414.5,236.5,230.75,307.0,6
-71.75,-222.25,-321.25,180.75,189.5,289.0,264.25,552.5,6
107.5,-122.5,-538.5,1.75,-104.0,296.25,222.0,582.0,6
308.75,-7.0,-342.25,52.0,-261.75,140.5,95.25,598.75,6
-789.75,15.5,-286.0,15.75,-525.25,217.0,-1.0,683.0,6
-769.25,13.0,-849.0,-172.5,-826.75,480.0,-114.0,731.25,6
-376.0,75.0,-1110.5,-284.25,-875.75,967.25,-388.0,761.25,6
383.25,133.0,-480.5,-296.5,-622.25,1433.5,-562.5,765.25,6
957.75,93.25,45.0,-203.5,-362.0,1432.0,-424.75,828.75,6
660.75,86.0,421.0,-179.0,-83.25,1401.75,-145.5,754.0,6
165.75,80.0,522.5,-15.25,-14.25,1266.25,-41.25,752.0,6
-63.75,124.0,145.5,88.0,-461.0,538.5,-93.25,819.75,6
-269.0,166.0,107.25,254.5,-361.0,74.0,-223.25,916.5,6
-251.75,162.25,123.0,741.25,-20.75,19.5,-330.5,1043.75,6
-139.5,152.75,95.5,762.0,-316.25,287.0,-359.0,1073.25,6
-27.75,143.5,41.5,635.0,-806.0,447.0,-347.75,910.5,6
73.5,219.75,-219.75,-467.0,-15.0,604.0,-374.25,787.5,6
-0.75,283.75,-352.75,-885.5,-187.5,664.5,-455.5,709.5,6
18.25,281.0,-181.5,-593.5,-997.75,436.25,-458.5,635.75,6
75.25,268.75,109.5,-421.5,-963.75,105.0,-481.25,692.25,6
180.75,280.25,187.5,-1237.75,-915.5,-241.5,-582.25,683.75,6
246.0,334.0,89.25,-1203.0,-678.5,-507.25,-760.0,539.25,6
617.75,417.75,-378.75,-1140.0,397.25,-615.25,-859.25,326.25,6
1262.25,372.25,-718.0,-1091.5,-183.5,-714.75,-744.0,343.5,6
1296.0,251.75,-846.25,-1059.5,-285.25,-985.0,-675.5,443.75,6
1269.5,184.75,-870.75,-610.75,-632.25,-1216.5,-630.25,296.0,6
679.0,93.75,-639.5,898.25,-608.75,-1244.5,-610.5,200.5,6
-102.25,-75.75,-604.75,880.75,-409.75,-1151.5,-565.75,157.0,6
-656.75,-202.75,-441.75,863.75,73.75,-1145.25,-302.0,67.5,6
-785.25,-164.0,4.25,852.25,193.75,-1077.5,-127.25,-45.25,6
-651.75,-115.0,485.0,861.5,164.0,-678.25,-18.5,-178.0,6
-521.0,-45.75,741.75,884.75,190.75,-238.5,30.75,-219.25,6
-580.25,16.0,355.5,-1065.25,379.25,205.75,-40.25,-127.5,6
-550.75,58.0,-57.25,-1019.0,550.0,613.75,-38.75,160.75,6
-194.5,82.0,-87.0,-1012.5,653.75,462.0,-28.75,295.5,6
248.5,70.25,-182.75,-1056.25,621.75,-401.0,0.5,290.0,6
737.5,94.5,-494.0,953.5,467.75,-888.0,84.75,452.0,6
918.25,100.5,-676.0,955.25,592.0,-829.25,6.75,496.5,6
1122.0,83.0,-624.75,961.5,580.25,-781.5,-199.5,294.25,6
1436.0,6.25,-527.75,-999.0,297.75,-720.0,-251.25,42.0,6
1184.0,-54.5,-414.25,-973.25,-63.5,-370.75,-44.5,-177.75,6
1057.5,-66.5,-247.25,-941.25,-336.25,628.25,224.25,-274.5,6
936.25,-27.75,-10.5,-923.25,-553.5,884.25,140.0,-409.0,6
226.5,-2.5,43.5,757.75,-773.0,686.25,-186.25,-477.75,6
-554.75,-13.0,119.75,1137.75,-778.5,744.5,-379.25,-524.0,6
-925.0,14.75,409.25,1091.25,-253.25,690.25,-439.25,-629.75,6
-911.0,1.5,597.0,1031.5,398.5,441.25,-581.5,-641.5,6
-1059.0,-8.75,722.5,1009.75,640.25,204.75,-783.0,-677.75,6
-1089.75,9.25,764.25,971.5,560.75,109.0,-560.5,-635.25,6
-963.0,62.25,684.0,-721.75,260.5,-51.75,-138.75,-662.25,6
-498.25,111.5,645.0,-1104.5,279.25,-357.0,-222.75,-668.75,6
143.5,116.25,563.5,-1093.5,237.5,-1024.75,-359.75,-665.25,6
701.5,85.0,492.5,-1053.0,17.75,-1000.25,-341.75,-693.25,6
963.75,43.75,186.0,620.5,70.25,-1004.5,-531.75,-634.75,6
889.75,-12.25,-12.0,899.25,268.25,-1012.5,-726.5,-581.5,6
462.75,-61.5,28.75,450.75,384.25,-76.25,-596.75,-481.0,6
-72.0,-47.0,-41.5,286.0,32.0,436.75,-473.0,-412.0,6
-576.75,-14.0,-143.5,959.5,-119.25,418.75,-647.0,-251.25,6
-776.25,-12.0,-302.0,961.0,50.75,70.0,-795.0,25.0,6
-553.0,-36.25,-365.25,959.5,-194.75,536.75,-1019.5,195.5,6
-359.75,-48.0,-449.0,-1016.5,-99.5,954.0,-1085.75,333.75,6
-269.25,2.0,-450.0,-413.25,-114.25,571.25,-772.0,867.25,6
296.25,286.0,-88.75,348.25,-457.25,36.25,-226.5,1157.75,6
783.25,677.0,412.5,218.0,-493.5,-93.75,128.5,511.25,6
848.0,589.0,384.75,-1453.75,-414.75,-587.75,288.0,-259.0,6
731.25,454.0,309.75,-1517.75,417.25,-1214.75,354.75,-620.75,6
445.0,449.75,577.5,-1381.0,686.75,-983.25,182.0,-947.5,6
153.25,300.75,575.75,-1279.75,601.0,-813.5,211.0,-939.0,6
250.25,267.75,187.75,-1141.0,649.0,-734.25,365.0,-919.0,6
-1.5,172.0,-250.75,-135.5,-96.5,-144.5,559.0,-848.25,6
3.0,94.25,-747.0,953.0,-186.0,195.75,527.5,-427.25,6
-51.25,48.25,-1078.75,1092.5,668.0,597.5,409.0,0.75,6
-4.0,-136.25,-980.5,1086.0,1151.0,950.0,323.25,371.75,6
263.5,-200.5,-1085.0,1155.25,947.5,959.25,219.75,746.5,6
124.0,-157.25,-973.5,244.0,502.5,701.25,403.5,474.5,6
-377.0,-51.75,-605.0,-288.0,829.0,592.25,336.0,304.25,6
-915.5,-447.75,5.25,-68.25,1451.0,782.0,107.5,354.25,6
-657.0,-866.0,297.75,-133.75,1510.5,804.0,68.5,551.5,6
-216.5,-806.75,-39.0,-228.75,1590.0,640.25,135.5,724.25,6
180.25,-662.25,-47.75,-371.75,1673.25,589.25,138.25,665.0,6
17.5,-668.75,-25.25,864.75,1281.25,612.25,84.75,797.0,6
-152.75,-454.75,-39.25,1451.5,1247.0,756.75,53.5,856.0,6
-422.5,-524.5,13.75,1399.0,1309.75,918.75,211.75,818.25,6
-660.0,-426.75,307.5,1294.0,1095.5,825.75,466.25,646.25,6
-699.75,-310.0,906.5,1038.75,642.0,505.75,457.25,452.0,6
-681.0,-126.5,1314.75,1199.5,274.75,153.75,380.25,350.75,6
-477.5,-7.25,1295.0,1137.0,-337.75,59.75,210.5,382.5,6
-569.5,-83.5,1303.25,1023.75,-1290.75,-91.25,24.0,479.75,6
-581.75,-175.0,1035.25,996.75,-1858.25,-159.5,-119.25,486.5,6
-533.75,-242.75,957.75,946.5,-1985.25,-251.0,-295.75,539.0,6
-363.5,-141.5,672.0,897.5,-2284.5,-326.25,-388.75,531.5,6
-262.25,-47.75,-11.25,871.25,-2569.5,-287.5,-311.25,462.5,6
-155.5,134.75,-661.0,641.5,-1978.0,-151.25,6.5,312.5,6
-96.5,129.5,-217.75,579.25,331.75,-51.0,252.5,-36.5,6
-145.0,-3.75,-93.25,709.5,1755.25,-124.5,286.25,-476.25,6
-198.5,-53.0,-402.75,874.0,1732.0,-152.5,151.75,-836.25,6
-449.75,-15.75,-992.5,1038.5,1836.0,-218.0,-35.0,-906.25,6
-1060.0,92.25,-1153.25,1032.75,1300.75,-251.25,-144.25,-681.75,6
-1042.0,240.5,-1013.0,643.0,134.25,-256.0,-281.5,-616.25,6
-956.5,210.25,-708.5,315.0,-159.0,-217.25,-366.5,-683.0,6
429.5,86.25,-545.0,-107.5,89.75,-144.75,-479.5,-519.25,6
1049.0,245.25,-536.0,-388.75,543.75,-178.0,-676.5,-451.75,6
1033.25,136.25,-36.25,-576.0,707.25,-229.5,-629.5,-408.75,6
1181.5,-376.25,519.25,-606.5,666.25,-197.5,-418.75,-459.0,6
1287.75,-304.0,586.75,-452.25,579.75,-13.5,-363.0,-574.0,6
1247.25,124.5,-857.0,-509.25,944.75,329.25,-153.0,-514.75,6
716.25,-71.75,-1453.5,-702.0,1332.5,689.25,-342.5,-490.0,6
313.0,-98.5,-1458.0,-964.5,1433.0,756.0,-793.25,-382.75,6
229.0,402.0,-1406.5,-1265.75,436.5,671.0,-721.5,-203.75,6
553.25,879.75,-1066.25,-1534.0,-1052.25,415.5,-495.5,182.0,6
426.0,1034.5,-1066.0,-1596.25,-1412.25,189.25,49.25,421.0,6
439.75,998.5,-550.5,-1332.75,-1306.25,223.5,500.5,530.5,6
335.75,639.0,367.25,-962.25,-545.25,403.5,536.25,621.75,6
-93.5,181.75,1064.75,-810.75,650.5,471.25,174.0,633.75,6
-336.0,-16.25,1079.5,-828.25,804.5,586.0,-127.25,446.0,6
-580.75,73.5,1109.75,-829.0,712.75,641.5,119.25,354.5,6
-901.5,320.75,1201.0,-710.25,134.0,781.0,239.5,165.25,6
-923.5,326.0,1553.75,-277.25,-365.0,832.5,407.25,-62.5,6
-720.5,709.25,2151.75,-101.5,-630.5,877.25,402.75,-240.0,6
-409.25,922.25,2035.5,5.25,-306.0,841.25,296.5,-236.5,6
-316.0,967.5,-88.0,205.75,727.5,-1060.0,292.75,-107.5,6
-547.25,945.5,-224.25,304.0,805.75,-983.25,189.25,-86.5,6
-710.25,943.0,-202.75,287.0,17.5,-953.0,355.5,-111.25,6
-501.25,568.5,637.75,216.25,-796.0,-895.0,547.25,-113.0,6
-266.75,-378.0,1126.5,308.0,-1005.0,-878.25,458.0,-135.5,6
996.0,-961.75,372.5,169.75,-1093.5,-823.25,359.0,-234.5,6
1777.5,-751.0,198.5,72.25,-861.75,-769.0,521.25,-368.25,6
1803.75,-518.5,-167.0,98.25,29.25,-756.5,582.25,-415.5,6
1580.0,-930.25,292.5,2.0,616.25,-687.25,617.25,-217.0,6
213.75,-773.75,-206.0,207.25,909.25,588.25,418.75,-39.5,6
-776.5,-974.25,-528.5,720.25,1282.0,1182.5,-143.5,-336.0,6
-2077.5,-1508.25,-123.0,967.25,1397.0,1178.75,-59.5,-323.5,6
-890.75,-1301.5,-721.25,981.25,463.5,1069.75,200.0,-140.25,6
89.5,-721.25,-1756.25,733.25,318.75,1441.5,24.75,-670.5,6
-263.25,-210.0,-909.5,440.75,424.75,1399.25,-507.25,-773.0,6
-140.75,62.25,926.25,74.75,-534.5,1312.0,-512.75,-477.5,6
-695.25,-135.5,1268.25,-116.5,-1323.75,1104.5,-243.0,-400.25,6
-1006.5,-377.0,-81.25,-266.25,-565.0,904.75,598.0,-991.75,6
-562.25,-273.5,-623.5,-87.75,-374.75,727.25,970.5,-961.5,6
-81.0,-740.5,69.25,-0.25,-549.0,652.25,1058.75,-908.0,6
734.0,-830.75,-31.25,-0.5,-1510.75,926.0,593.75,-359.25,6
802.75,-639.5,-70.75,-140.0,-1412.25,972.5,381.0,-107.5,6
722.75,-779.75,1192.75,-151.0,-1477.25,949.0,324.25,-220.0,6
491.0,-544.75,1823.75,-152.75,-1103.0,773.75,253.75,-324.0,6
291.25,748.25,677.5,-301.5,-1380.25,536.25,399.5,-603.5,6
180.25,1142.0,-446.25,-567.5,-2029.0,365.0,436.25,-554.25,6
178.75,1171.25,-1568.5,-842.75,-2060.25,315.75,439.25,-444.0,6
239.25,710.25,-1912.5,-899.25,-2053.5,-254.25,170.75,-333.25,6
327.0,-359.75,-1970.25,-848.75,-1309.5,-1403.5,-303.0,-300.0,6
346.75,-720.25,-2421.0,-416.75,-407.0,-1277.25,-562.0,-377.5,6
116.5,-870.5,-2625.25,12.5,-493.5,-1211.0,-522.0,-626.75,6
0.25,-922.5,-2099.5,133.25,-741.5,-1151.0,-468.5,-745.25,6
218.25,177.5,-1354.0,99.0,-1098.25,-1106.5,-160.75,397.75,6
113.25,1075.5,176.5,0.5,-1427.75,-1064.25,305.75,986.75,6
-411.25,1064.0,1518.25,-135.5,-1366.25,-76.25,821.0,835.5,6
-630.75,959.0,1869.0,-185.0,-1270.5,1231.75,752.75,1469.75,6
-755.25,926.0,1387.75,-45.25,-1489.0,985.25,41.25,1380.0,6
-846.25,586.5,1100.5,-1.25,-1683.25,769.5,-189.0,1725.75,6
-388.5,456.75,1068.5,-27.5,-1628.5,1364.25,-318.75,2159.25,6
215.5,644.25,931.75,-99.25,-1744.25,1311.5,-144.75,1232.25,6
118.25,137.75,867.0,-144.5,-1809.0,931.0,31.0,1113.5,6
-56.5,-434.25,633.5,-257.75,-1946.75,700.0,-195.25,260.5,6
-306.75,-506.25,-118.5,-235.0,-1786.25,473.25,-381.0,-871.25,6
-507.25,-365.75,-655.5,-154.75,-1698.25,252.0,-549.25,-1019.75,6
-197.5,-355.75,-425.0,-141.25,-1571.5,146.25,35.5,-736.75,6
-19.5,-31.25,-50.5,55.75,-1408.0,68.5,816.0,-583.5,6
-166.75,-99.75,380.0,76.25,-1546.0,144.25,907.25,-295.25,6
303.75,-151.25,591.5,44.25,-1302.0,445.25,832.25,919.75,6
712.5,-486.5,439.5,-23.0,-501.75,730.75,498.0,1122.75,6
462.0,-611.75,-117.5,7.0,278.5,1038.0,288.5,1169.0,6
933.5,-258.25,-65.75,-46.0,532.5,1125.25,215.0,918.5,6
1605.5,-179.25,949.5,-254.5,535.0,995.0,162.75,727.25,6
1971.75,247.75,1098.0,-269.75,519.75,711.0,35.25,594.5,6
1498.25,444.25,519.5,-72.25,986.0,463.25,-130.5,128.0,6
76.5,243.25,248.75,487.5,1694.75,325.5,-159.5,77.25,6
-654.5,-15.25,226.25,828.5,1695.25,-64.0,-178.25,20.0,6
-670.0,222.0,168.75,741.25,1833.25,-461.25,-251.0,570.5,6
-736.75,145.0,238.5,904.0,1845.75,-384.0,-375.75,781.25,6
-610.5,-210.75,250.5,1014.0,1489.5,-213.0,-429.0,577.0,6
-314.0,-310.5,803.5,878.25,1298.5,-122.5,-568.25,465.75,6
-437.75,-464.75,917.0,848.0,1424.25,-4.5,-721.25,143.0,6
-980.75,-402.75,934.75,857.75,1502.25,-52.75,-843.0,42.25,6
-1819.25,-420.5,866.5,833.25,1296.5,-113.25,-978.25,-115.75,6
-1746.0,-235.5,552.25,688.75,974.0,-31.75,-1104.0,-63.5,6
-1336.5,99.5,382.25,627.0,765.5,116.25,-1231.75,282.75,6
430.75,473.5,398.75,605.0,720.0,124.75,-1370.0,273.0,6
485.75,700.0,63.75,578.0,945.0,59.75,-1269.25,87.25,6
406.0,682.25,-438.25,515.75,1341.25,6.75,-725.25,186.5,6
868.5,524.0,-897.5,354.75,1600.25,-98.0,-191.5,155.0,6
804.25,268.5,-598.75,170.5,1503.0,-150.25,375.75,-117.0,6
187.75,5.5,-630.5,22.5,1184.5,-180.25,546.75,-404.0,6
-0.25,-351.5,-1030.5,-2.0,1486.75,-81.25,644.25,-573.5,6
-262.75,-422.75,-1249.0,-254.75,1439.75,171.0,747.0,-484.5,6
-1010.25,-225.0,-1559.25,-508.25,841.5,370.0,716.5,-601.25,6
-1449.25,-275.0,-1842.0,-451.75,108.0,440.25,653.5,-931.0,6
-832.25,-133.0,-2038.25,-394.25,-897.75,473.25,557.5,-1094.0,6
-179.25,287.75,-2088.25,-350.0,-1332.5,343.5,471.5,-1078.75,6
411.75,619.5,-1837.75,-552.25,-1338.25,-34.5,515.5,-605.5,6
905.0,1124.0,-1380.5,-1271.5,-708.5,-625.0,708.0,12.75,6
925.5,1070.5,-962.5,-1388.25,58.5,-741.5,668.75,-230.75,6
525.25,739.75,1152.0,-1165.25,442.0,-490.5,505.25,-1135.0,6
-78.5,7.0,1299.75,-589.0,1406.25,101.75,289.5,-1637.0,6
-709.75,-1068.5,1781.75,-186.5,1505.0,427.0,65.75,-1394.0,6
-657.0,-1010.25,1593.5,-418.5,592.75,21.25,75.0,-800.0,6
-272.0,-475.25,1265.25,-553.75,101.25,-80.0,-256.5,-633.0,6
-646.25,-735.75,1619.75,-33.75,119.75,140.75,-437.0,-202.5,6
-794.5,-542.75,1757.5,230.75,86.5,-7.0,-583.0,106.5,6
-1308.5,-776.75,1833.0,478.75,-447.5,-33.5,-692.75,283.5,6
-1339.5,-786.25,1724.25,391.75,-1665.0,-368.5,-540.75,561.0,6
-488.75,-819.25,1595.25,370.0,-2224.5,-365.0,-609.5,566.0,6
-93.5,-834.5,1540.0,99.75,-2060.5,-456.0,-607.25,751.25,6
-266.25,-410.75,1440.25,0.5,-1506.0,-463.0,-636.75,669.25,6
-295.5,108.5,623.25,14.75,-904.75,-420.75,-607.25,561.0,6
-87.25,476.0,73.5,-100.0,-474.25,-333.75,-662.5,471.0,6
-76.5,312.0,26.5,-11.75,-490.75,-221.75,-699.0,420.0,6
103.0,271.5,-183.25,-26.25,-662.75,-240.25,-720.75,441.5,6
74.25,271.0,-233.5,149.25,-586.0,-263.25,-635.25,678.5,6
-342.25,297.25,-229.0,454.0,-523.75,-289.75,-420.75,943.75,6
-692.75,288.0,-252.25,782.75,-458.25,-183.25,-327.75,980.5,6
-691.75,382.0,-214.25,992.25,312.5,-108.5,-183.25,980.25,6
-435.5,794.5,20.0,868.25,1038.5,58.75,-59.5,543.5,6
-79.25,999.0,-489.25,681.0,1038.75,54.5,171.25,254.0,6
266.5,408.75,-664.5,437.0,1379.5,80.25,357.25,251.75,6
582.5,-573.0,-526.75,55.5,1801.25,104.75,453.0,477.25,6
1053.75,-619.5,-757.5,-362.5,1930.75,45.25,497.25,837.5,6
1424.25,-641.25,-1202.5,-566.25,2024.5,153.0,484.0,951.75,6
1484.0,-168.75,-2108.5,-410.0,2052.5,237.75,412.0,949.25,6
1318.75,285.5,-2360.5,-314.5,1781.75,249.75,300.75,860.5,6
928.5,275.0,-2294.5,-423.0,1384.5,184.25,253.0,611.0,6
615.25,449.25,-2207.75,-644.5,1028.0,206.0,182.5,381.75,6
816.0,1061.25,-1829.25,-172.75,1843.0,274.5,12.75,454.0,6
865.0,1242.25,-1540.0,494.0,2227.75,239.25,-145.5,524.0,6
1066.75,1446.0,-1155.0,144.5,893.0,-55.75,-326.0,416.5,6
1145.0,1513.5,-101.75,-71.0,609.5,-385.75,-546.0,885.75,6
1249.0,849.25,1234.5,-221.75,436.0,-581.75,-681.25,1488.0,6
1475.0,-128.25,1683.5,-568.25,229.25,-621.25,-651.5,2134.75,6
1220.5,-474.25,1575.75,-907.0,891.5,-569.25,-634.75,2258.0,6
1042.75,-655.5,1856.75,-990.5,1434.75,-353.25,-704.5,2165.0,6
78.25,-903.0,1627.25,-622.5,1927.5,-89.0,-763.5,2020.75,6
-211.75,-1073.0,1158.0,-253.0,1750.0,67.5,-806.5,1798.0,6
-261.75,-1087.5,1093.25,-171.25,1202.25,410.0,-854.5,1419.0,6
-674.5,518.75,907.0,-422.25,1062.5,591.75,-848.75,1485.75,6
-416.5,859.5,266.75,-368.5,1249.5,874.0,-905.0,523.5,6
-353.25,913.25,95.75,-108.25,1387.25,1074.0,-1018.0,-367.25,6
-963.5,954.75,-109.25,-249.0,1160.25,1025.0,-1060.75,-494.75,6
-1694.75,327.75,-1278.75,-521.25,1130.5,1193.25,-828.0,-577.25,6
-1784.0,-1031.5,-1748.75,-672.75,1277.5,1297.5,-580.25,-594.0,6
-1514.5,-1057.0,-1639.75,-628.0,1621.25,1372.5,-430.75,-864.25,6
-1362.0,-1115.75,-1515.5,-747.5,1532.25,1248.0,-238.0,-1061.75,6
-1139.25,-618.5,-846.25,-336.5,1135.75,1059.75,6.0,-1313.25,6
-1109.0,207.25,-366.75,380.75,921.25,987.75,157.0,-1707.75,6
-858.5,654.75,201.75,468.25,710.75,805.0,294.0,-1870.5,6
-386.25,688.75,528.75,501.25,60.75,647.5,466.75,-1721.75,6
197.25,712.0,273.25,665.0,-751.5,496.0,552.25,-1422.25,6
715.25,714.75,0.5,608.25,-1031.75,344.0,654.0,-1557.5,6
809.5,715.0,-364.25,591.0,-764.75,297.0,711.25,-1989.5,6
334.5,-1127.75,282.5,547.75,-564.75,355.25,726.5,-1899.75,6
68.0,-1170.25,778.0,502.75,-360.75,310.75,705.5,-1568.25,6
-76.75,-1095.75,760.75,609.75,-112.25,229.0,766.5,-1107.5,6
-455.25,-1126.5,887.75,436.5,-78.0,107.0,901.5,-663.25,6
-766.25,-1219.25,972.75,148.5,-118.25,-74.75,909.75,-776.75,6
-983.5,-784.5,1022.5,237.25,-98.25,-203.0,787.0,-773.5,6
-954.0,327.75,596.25,322.5,-275.0,-276.5,728.25,-663.75,6
-865.75,584.5,-202.0,229.0,-566.5,-210.5,810.5,-757.0,6
-834.5,613.0,-487.25,365.25,-774.75,-267.25,803.75,-597.25,6
-342.25,685.75,-660.5,482.75,-1026.75,-420.5,801.25,-191.75,6
1007.25,195.5,-692.25,175.5,-620.25,-579.5,808.5,256.0,6
1207.25,-666.25,-667.5,-691.0,-448.5,-679.25,673.75,688.5,6
1173.25,-1039.0,-472.0,-945.75,-550.75,-427.75,588.75,502.75,6
1077.0,-714.25,-155.25,-254.75,-791.5,-247.5,516.0,398.25,6
921.0,539.0,221.5,65.25,-2016.5,-351.75,360.0,346.75,6
899.25,974.25,641.0,-15.0,-2780.25,-572.75,302.75,258.75,6
575.25,281.0,512.25,-24.5,-2942.0,-755.5,96.75,558.25,6
243.0,-897.25,275.0,-281.0,-3058.5,-780.25,-122.25,508.75,6
178.25,-827.25,449.25,-595.25,-2983.5,-888.0,-228.5,454.25,6
310.75,-762.5,360.75,-810.25,-2391.75,-943.25,-474.75,675.25,6
799.75,-725.25,-88.25,-1192.5,-1636.75,-816.25,-769.0,289.25,6
977.5,-537.0,-294.25,-1431.0,-2019.0,-640.25,-914.75,-231.25,6
390.0,769.75,-471.5,-1345.0,-2175.5,-467.0,-969.0,146.75,6
-105.0,1262.75,-721.0,-655.25,-1849.75,-412.75,-998.75,-252.75,6
-633.5,1186.75,-796.5,-359.25,-1340.0,-435.5,-1024.25,-849.0,6
-977.75,1115.25,-770.75,-417.75,-1005.5,-441.0,-1108.0,-802.75,6
-876.75,850.25,-428.5,-114.5,-1086.0,-410.25,-1045.25,-668.75,6
-722.75,48.5,339.5,-51.0,-1378.25,-400.25,-460.5,-733.0,6
-685.25,-446.5,929.25,-69.0,-1619.75,-275.0,272.5,-817.0,6
-719.75,-421.25,810.75,10.0,-1901.75,-122.5,664.75,-692.5,6
-623.25,43.5,797.0,138.75,-1993.25,-233.75,701.0,-466.0,6
-369.25,823.75,615.25,241.0,-1605.0,-458.25,809.5,-531.5,6
-284.75,935.5,25.75,550.75,-1296.75,-489.25,838.5,-999.5,6
-869.0,347.5,-8.25,882.25,-761.5,-205.0,705.5,-1121.5,6
-1803.25,-1154.0,303.0,812.25,207.75,-284.5,704.25,-565.5,6
-1686.75,-1582.25,231.75,683.25,443.25,-634.5,858.25,-138.75,6
-1387.5,-1408.5,-191.75,626.0,348.75,-960.25,858.5,-229.5,6
-1431.75,-1431.0,-532.75,566.75,7.0,-1042.25,883.75,-364.75,6
-1195.5,-1218.5,-791.5,502.25,-785.25,-869.25,919.25,-402.5,6
-1064.0,-1187.25,-1128.25,502.0,-1469.75,-923.0,971.75,-455.5,6
-744.75,-996.75,-1079.25,390.25,-1095.75,-1005.5,991.75,-630.25,6
-392.75,-843.0,-603.25,176.25,-439.5,-1058.0,1081.0,-257.0,6
11.0,-647.75,-99.5,-237.25,1014.0,-1147.5,1284.5,395.0,6
407.5,-567.0,599.25,-325.25,1587.5,-1080.0,1284.0,1293.0,6
1192.5,-445.5,832.0,-486.5,1232.75,-1102.0,1201.0,1579.75,6
2077.5,507.0,831.75,-518.5,622.25,-1009.75,1163.5,1526.5,6
1369.5,1575.0,809.5,-155.25,467.75,-744.75,1012.25,1067.25,6
212.25,1352.25,541.25,30.5,492.25,-418.75,47.0,369.25,6
-121.5,1277.25,446.5,308.25,574.25,-176.0,-1045.25,203.5,6
-735.75,1106.75,1028.25,504.25,1254.5,22.25,-1228.25,71.25,6
-624.0,1088.0,1328.0,332.0,2350.25,98.75,-926.25,173.75,6
-233.0,1092.5,749.75,298.5,2233.25,221.0,-920.0,-476.75,6
167.75,956.75,731.5,491.0,2516.0,371.0,-1006.0,-1042.5,6
563.5,838.25,233.5,756.25,1741.0,472.25,-883.0,-561.5,6
111.0,755.75,-640.5,865.0,1500.25,622.0,-782.0,-362.0,6
-816.75,782.5,-1237.25,790.25,885.0,800.5,-847.25,-277.5,6
-1171.25,723.5,-1578.75,778.25,190.75,824.75,-1071.75,-516.75,6
-1041.25,791.5,-1395.0,452.75,-264.5,686.25,-1219.5,-993.25,6
-1101.5,995.5,-1157.0,1.5,-317.25,604.5,-1260.0,-1470.5,6
-402.0,1137.5,-1120.5,-335.0,-1225.0,387.75,-1195.0,-1195.0,6
1445.75,1039.5,-1643.25,-583.25,-1765.75,83.25,-1046.5,-575.75,6
1821.25,875.25,-1525.5,-519.5,-1288.0,29.25,-945.75,-619.75,6
934.25,891.5,-182.75,-387.0,-598.5,186.25,-899.75,-397.5,6
-1096.0,857.0,1373.0,-294.75,60.25,349.5,-983.75,166.75,6
-1561.75,639.75,2800.75,-258.75,111.0,433.5,-1010.75,532.25,6
-1934.0,475.5,2423.25,-280.5,-306.5,606.75,-136.0,513.25,6
-1475.25,453.0,439.0,-280.25,-554.0,683.5,1022.5,405.75,6
-1346.25,307.75,-161.5,-333.25,-1137.5,822.5,1104.75,507.5,6
-879.5,266.25,9.5,-346.5,-1012.5,797.25,1084.0,328.75,6
-542.0,75.75,890.75,-276.25,-341.0,773.0,970.75,195.25,6
-430.5,-180.75,681.5,-244.25,-677.25,775.25,664.75,193.25,6
-53.25,-380.5,361.5,-91.25,-1088.25,789.5,597.25,114.5,6
397.75,-376.75,42.25,-102.0,-313.75,828.25,495.75,289.5,6
689.25,-600.0,97.75,47.5,526.0,1035.25,335.0,491.25,6
226.25,-1356.5,130.25,623.5,593.0,1460.0,229.75,262.75,6
24.5,-1304.0,6.5,784.25,478.5,1470.75,489.75,226.5,6
342.0,-1101.0,-144.0,721.0,248.5,1353.75,851.25,105.5,6
648.25,-1185.5,-50.5,660.5,-16.25,1186.75,836.5,-190.0,6
317.0,-991.25,-743.0,494.0,-205.75,812.0,776.25,-66.75,6
208.25,-889.5,-423.75,232.75,-304.5,734.5,612.5,-58.5,6
-172.0,-873.5,809.0,281.25,-852.75,584.5,430.25,-179.25,6
-355.25,-713.5,2053.0,166.0,-771.25,536.0,368.0,-107.75,6
-422.75,-762.25,1579.75,40.25,-480.5,494.75,291.5,-92.5,6
-472.0,-630.25,209.75,-251.75,-227.75,485.0,353.0,169.5,6
-502.0,-514.5,-113.0,-356.5,210.25,725.5,544.5,181.75,6
-414.0,-390.25,265.5,-406.5,399.25,828.0,706.0,187.5,6
-415.75,-436.0,516.75,-365.5,167.5,731.25,861.0,175.25,6
-709.75,-388.75,320.0,-290.0,-451.75,575.5,1137.0,202.75,6
-913.75,-386.5,777.25,-213.0,-257.0,470.75,1324.0,232.5,6
-904.0,-390.25,1249.0,-168.25,321.0,301.0,1174.0,220.5,6
