0,1,2,3,4,5,6,7,label
-462.0,56.5,-301.5,-186.5,1383.25,100.25,-1523.75,-988.5,7
-545.5,79.75,-241.75,-62.5,1300.5,51.75,-1683.5,-1044.5,7
-628.25,179.0,-116.0,-196.25,1078.5,-37.0,-1738.0,-1093.75,7
-616.5,278.5,68.5,-230.25,1030.75,29.75,-1685.75,-790.25,7
-505.25,129.0,178.0,-282.0,1342.75,121.25,-1554.5,-594.75,7
-133.5,-100.0,275.5,-453.25,1519.5,167.0,-1344.5,-470.0,7
288.0,-203.5,398.25,-440.75,1341.25,129.75,-1294.0,-135.75,7
721.75,-349.75,440.0,-183.25,1302.0,175.5,-1041.0,89.0,7
773.25,-565.5,281.75,-8.25,974.75,82.75,-682.25,250.5,7
305.0,-574.25,13.5,-66.75,520.75,5.75,-653.5,323.5,7
-17.25,-405.75,-71.0,-68.25,330.25,33.0,-621.75,362.25,7
202.5,-146.5,-152.5,60.25,318.25,93.0,-655.25,505.25,7
166.25,-109.5,-491.75,212.75,326.25,148.0,-620.0,631.75,7
168.5,-46.5,-864.25,198.75,71.25,137.5,-574.5,580.5,7
481.0,19.0,-805.5,134.5,205.5,92.25,-462.5,420.0,7
925.75,147.5,-755.75,-59.25,141.0,55.5,-242.0,444.75,7
1378.5,249.75,-551.75,-95.0,575.75,210.75,-60.5,408.75,7
1212.75,225.5,-91.75,-46.25,841.5,492.5,228.5,318.25,7
883.25,282.0,260.25,56.5,723.5,782.75,486.5,267.25,7
666.25,337.75,496.75,-97.25,271.25,698.5,817.5,320.0,7
904.0,709.5,1122.0,-419.75,13.75,408.5,1097.75,388.0,7
755.5,530.25,1286.25,196.5,1061.0,945.5,606.0,120.25,7
-196.5,-760.0,887.25,1069.25,1371.5,1599.75,179.5,-3.25,7
-664.5,-792.25,883.0,1071.75,1165.0,1153.0,573.0,166.0,7
-825.25,-467.0,964.0,844.5,1125.0,592.75,680.25,164.25,7
-1122.75,-545.25,894.5,1012.25,885.5,199.5,700.75,160.0,7
-1042.0,-166.0,795.0,876.5,303.75,-123.5,322.5,171.75,7
-878.5,36.25,65.5,902.75,162.5,86.5,-305.25,209.25,7
-749.0,77.0,-443.5,681.5,-328.5,-99.25,-247.5,352.0,7
-953.5,-47.25,-633.75,536.0,-407.75,-39.25,310.0,509.5,7
-1209.75,-283.25,-739.25,556.25,-749.0,138.25,594.0,582.0,7
-1070.5,-103.75,-721.25,301.5,-878.5,207.0,549.0,453.25,7
-967.5,-82.0,-779.25,172.5,-1119.25,8.75,698.0,303.25,7
-1012.5,-181.25,-386.0,40.0,-1212.75,-81.5,439.25,150.25,7
-1049.0,-492.5,-177.25,202.25,-1143.75,101.75,452.75,150.25,7
-1024.75,-356.0,-280.0,188.25,-1664.75,104.75,567.75,139.5,7
-855.0,-147.75,98.25,94.5,-2218.0,279.0,740.75,53.0,7
-540.75,-38.0,196.25,-10.0,-1989.75,251.25,991.75,30.5,7
-514.75,-59.5,-139.5,-62.25,-1389.5,49.5,903.0,-53.0,7
-860.25,-140.5,-261.5,-109.25,-774.5,-55.75,789.75,-93.25,7
-820.5,-24.0,-408.75,-208.5,-440.75,45.25,588.25,-97.0,7
-444.0,-8.0,-359.75,-276.75,-306.75,183.5,607.25,-143.5,7
-215.25,38.0,-234.25,-380.0,-163.25,256.75,680.25,-199.75,7
90.25,96.25,-133.25,-449.0,6.75,184.75,613.75,-172.25,7
401.5,178.25,319.0,-531.75,-23.25,-87.25,454.5,-176.25,7
547.0,263.75,779.25,-644.0,-130.75,-316.75,380.0,-297.0,7
1007.75,355.25,818.75,-844.0,-197.0,-451.5,575.0,-355.0,7
1228.5,408.75,643.0,-819.25,13.25,-347.25,810.25,-299.0,7
1198.5,356.75,402.0,-619.5,-253.25,-286.5,912.0,-161.0,7
1118.5,301.0,-2.75,-355.5,-496.0,-376.75,960.75,-103.25,7
1045.0,329.0,-600.75,-259.5,-587.25,-346.0,881.0,81.25,7
1019.25,363.25,-1020.5,-244.5,-1021.25,-311.75,749.0,246.5,7
238.25,426.25,-944.25,-186.25,-1465.0,-269.25,732.5,232.5,7
-405.75,470.5,-320.5,-225.25,-1602.5,-91.0,708.25,423.25,7
-611.0,392.5,656.0,-103.75,-1667.5,91.75,606.0,515.0,7
-657.75,191.75,1319.5,16.5,-1644.5,276.0,385.0,543.75,7
-511.75,-1.5,1548.75,97.25,-1834.25,441.0,178.5,498.0,7
-299.75,-45.5,1075.75,197.5,-2015.25,445.25,214.5,426.5,7
-142.75,-18.0,669.25,213.5,-2146.0,318.5,611.75,394.0,7
-155.75,2.0,500.75,241.25,-1829.5,228.25,933.75,299.75,7
-332.25,-48.75,118.25,220.25,-1322.25,176.5,934.0,213.75,7
-659.5,-96.5,-321.5,221.25,-1288.5,94.75,600.0,82.75,7
-988.0,-143.75,-667.0,223.25,-1386.5,-35.75,284.75,31.75,7
-809.0,-81.0,-887.75,53.75,-1634.0,-123.0,316.5,9.75,7
-411.75,-46.25,-1002.25,90.75,-1420.75,125.25,428.75,94.5,7
-291.75,-213.25,-1223.5,277.25,-1602.25,554.5,564.25,138.25,7
38.75,-157.25,-1517.25,109.25,-1592.0,769.25,715.75,165.5,7
171.0,-142.75,-1494.75,122.5,-586.75,568.25,683.0,267.0,7
207.0,-176.75,-1344.75,137.5,402.5,148.5,700.0,344.75,7
457.5,-62.25,-1103.75,87.5,531.25,-42.75,986.75,502.75,7
463.25,-84.75,-457.5,305.25,279.25,-350.5,1106.75,532.25,7
433.5,-44.25,109.25,424.0,-310.75,-585.5,914.0,514.25,7
107.75,-86.5,364.5,566.0,-810.75,-758.5,530.5,662.75,7
-273.5,-79.75,579.25,376.0,-1023.0,-873.5,52.75,773.5,7
-614.5,-18.75,678.75,112.25,-1034.75,-759.25,-885.75,741.75,7
-867.25,-1.5,701.25,-119.75,-901.75,-565.75,-1222.75,730.25,7
-899.75,8.5,870.75,-282.75,-190.0,-182.25,-1195.75,829.25,7
-905.25,-76.5,884.0,-204.0,-25.5,-63.5,-698.25,1058.5,7
-856.5,-120.0,672.5,-188.75,-368.25,-110.25,-55.5,1053.75,7
-1147.0,-157.25,506.0,-109.75,-416.0,-200.75,244.75,1050.0,7
-849.25,-124.75,301.75,-86.0,-559.0,-346.0,429.75,1054.25,7
12.75,-115.5,165.75,-129.5,-520.75,-401.5,293.0,922.5,7
545.25,-186.25,129.25,-190.75,225.5,-498.25,-31.75,585.5,7
909.25,-250.25,-7.0,-198.75,1167.0,-618.5,-185.25,153.75,7
1120.0,-241.5,-147.75,-161.5,1609.25,-655.0,-435.25,-413.25,7
1317.75,-103.5,-249.0,-204.75,1313.5,-769.25,-418.5,-915.75,7
1355.25,60.0,-304.25,-332.25,670.5,-791.0,-221.75,-932.5,7
411.0,88.75,-319.5,-475.75,547.5,-589.75,-103.0,-933.25,7
-499.5,130.0,-277.25,-293.5,676.0,-494.0,-77.0,-927.0,7
-656.5,165.75,-173.5,29.0,834.0,-472.25,-141.0,-907.0,7
-917.5,136.75,-76.0,143.5,817.25,-369.0,-215.25,-852.25,7
-925.75,100.25,22.25,194.75,830.25,-161.0,-308.0,-812.25,7
-140.75,41.25,47.0,231.75,1089.75,-105.25,-314.5,-812.0,7
411.5,-0.5,-5.75,156.25,1408.0,-181.75,-103.0,-729.25,7
955.25,-69.25,-38.5,27.0,1585.5,-288.75,315.0,-802.25,7
1064.5,-82.75,-138.75,-139.0,1407.5,-221.75,500.75,-700.0,7
1169.75,-95.5,-292.0,-276.75,1007.0,-60.0,434.5,-754.0,7
1015.25,-101.75,-507.25,-275.25,585.75,135.0,6.5,-740.0,7
523.75,-132.25,-431.75,-173.25,394.25,331.5,-867.0,-749.0,7
268.5,-121.0,148.0,-88.75,754.25,424.75,-1384.75,-739.75,7
103.0,29.75,677.5,-147.5,1382.75,430.0,-1139.25,-711.75,7
-114.0,114.75,1007.25,-219.25,1281.25,394.75,-743.25,-625.5,7
-404.25,142.5,1033.75,-90.75,456.25,332.25,-394.5,-466.25,7
-826.0,100.0,757.5,144.75,-195.25,247.5,17.0,-400.0,7
-792.75,58.0,111.0,449.75,-616.5,151.75,216.25,-287.25,7
-545.75,83.25,-246.0,549.25,-859.0,147.5,170.0,-226.25,7
-437.75,14.25,-648.25,347.0,-756.5,221.25,-7.25,-157.0,7
-59.0,-119.5,-817.0,136.5,-713.25,142.25,78.5,-228.5,7
171.75,-152.25,-660.5,-110.25,-499.75,35.0,186.75,-298.5,7
356.0,-37.75,-607.75,-293.75,72.75,70.75,200.5,-331.5,7
386.25,17.0,-500.25,-318.5,586.0,271.25,268.25,-321.25,7
105.0,-38.75,-395.5,-424.5,917.25,527.0,308.5,-119.5,7
-89.75,20.5,-262.0,-438.25,995.75,769.25,348.25,84.75,7
-240.0,84.5,-300.5,-379.75,837.25,962.0,286.0,349.0,7
-110.0,100.0,-261.5,-407.75,67.25,981.0,360.25,746.0,7
53.0,146.5,-37.0,-349.5,-180.0,1016.5,397.0,956.25,7
200.5,233.5,491.25,-300.0,-616.0,1048.5,464.75,920.5,7
302.5,281.25,909.5,-243.75,-776.25,1037.5,436.75,887.5,7
206.25,215.25,910.25,-254.75,-870.5,1023.75,250.5,863.5,7
89.75,201.75,924.5,-209.0,-831.5,1034.0,117.5,846.25,7
31.0,129.0,456.5,-131.0,69.75,1103.25,-105.0,820.25,7
48.25,50.75,-336.75,-140.5,988.75,1152.75,-313.0,812.25,7
102.0,42.0,-1019.25,-112.25,1409.0,259.5,-401.75,752.5,7
295.0,4.0,-1022.25,-146.25,1327.75,-894.75,-316.25,657.0,7
459.0,50.25,-1012.75,-168.0,852.75,-924.25,-334.25,601.0,7
399.75,27.25,-904.5,-101.75,694.5,-941.0,-196.5,554.25,7
244.0,-17.25,-432.5,-35.5,461.0,-963.75,111.75,472.75,7
92.25,-44.25,-77.75,-33.5,308.5,-945.25,267.75,398.75,7
187.25,-57.75,-314.0,-11.25,260.0,-938.5,443.25,315.25,7
345.5,18.75,-706.75,-12.25,-107.5,-888.75,183.75,229.0,7
281.25,79.75,-960.0,-53.75,-2.25,-103.5,-296.0,200.0,7
198.5,31.5,-1059.5,166.5,470.25,217.25,-467.75,207.25,7
88.25,-35.25,-828.0,276.5,662.75,122.75,-241.75,155.0,7
207.25,-25.0,-600.5,180.5,713.25,-221.5,74.0,140.75,7
546.25,-60.25,-210.5,238.5,730.0,-643.25,293.25,110.5,7
514.75,-82.25,184.0,310.5,747.25,-897.25,439.75,113.0,7
120.25,-55.0,643.0,191.5,674.25,-907.5,283.0,93.75,7
-162.25,13.0,1019.25,-100.75,169.5,-747.5,79.0,38.0,7
-461.25,57.75,1127.75,-163.25,23.75,-481.75,-13.5,-8.25,7
-771.5,40.25,1074.25,-79.0,116.75,-32.0,-181.25,-111.25,7
-924.5,43.0,934.0,78.25,-82.5,474.5,-261.25,-4.5,7
-848.75,42.75,781.0,304.25,-370.25,1039.75,-179.75,204.75,7
-646.75,97.75,589.5,421.75,-563.5,1119.75,-266.25,189.0,7
-553.5,146.25,500.0,470.75,39.0,1203.5,-431.25,-79.75,7
-488.25,92.0,360.5,491.75,589.25,1246.0,-551.0,-298.75,7
-284.75,29.5,395.0,439.0,1009.5,1252.0,-868.25,-399.75,7
-3.0,-31.75,403.0,369.5,1175.75,1251.0,-1018.25,-433.5,7
120.75,-141.75,445.0,87.0,955.0,1188.5,-920.0,-426.5,7
59.75,-186.75,582.75,-320.0,708.25,1124.25,-843.25,-440.0,7
-6.25,-267.5,473.25,-342.5,616.75,1097.5,-630.5,-173.25,7
235.0,-330.0,309.25,-188.0,623.25,1014.25,-284.0,-107.25,7
420.5,-369.25,87.25,-35.25,781.0,936.5,-56.75,-172.75,7
283.0,-412.5,5.25,-3.75,726.5,887.75,-407.5,-101.75,7
24.25,-364.75,99.5,116.75,480.0,869.75,-720.5,-121.0,7
-163.75,-321.75,179.0,277.0,500.0,828.5,-496.75,-75.25,7
-239.5,-295.75,-25.75,424.5,736.5,835.5,-284.75,-20.75,7
-240.5,-200.25,-196.0,560.75,858.0,924.25,-244.0,77.25,7
-330.0,-121.5,-357.25,647.0,921.0,722.0,-281.5,186.0,7
-517.5,-115.75,-692.0,684.25,772.5,489.25,-156.25,222.5,7
-526.25,-45.0,-573.5,553.25,577.0,-94.5,54.75,291.75,7
-500.5,-10.5,-354.0,360.75,783.75,-823.25,190.0,304.25,7
-737.5,76.75,-193.5,40.25,968.5,-823.25,229.25,278.0,7
-857.75,201.0,-51.75,-197.5,944.0,-759.5,204.5,253.0,7
-491.0,233.5,101.5,-268.0,917.0,-764.75,52.75,242.25,7
-98.75,149.5,199.5,-185.0,1076.0,-716.25,-12.25,247.25,7
260.75,40.75,144.5,-59.25,1081.0,-734.75,195.75,237.0,7
563.25,37.0,93.5,-64.5,513.0,-770.75,494.25,145.75,7
843.25,7.5,-74.75,-42.0,-53.5,-796.0,270.5,25.5,7
933.25,-30.0,-159.0,-135.0,-354.25,-824.5,-3.75,-34.75,7
711.0,-17.25,-285.5,-182.0,-716.0,-812.0,-38.5,-27.5,7
455.75,-0.5,-325.5,-9.0,-606.0,-804.25,-230.5,88.0,7
138.5,24.25,-131.75,-1.25,-324.25,-818.5,-205.25,158.75,7
-200.0,13.0,62.0,-50.75,-998.25,-868.5,-70.25,114.0,7
-616.25,17.5,222.5,-46.75,-1342.5,-275.25,16.5,55.0,7
-612.5,40.25,312.25,-70.0,-1106.0,209.5,26.75,-0.5,7
-478.25,34.0,451.5,-47.75,-1133.5,543.75,92.0,-24.5,7
-506.25,61.25,586.25,-104.25,-1733.25,760.0,78.75,39.75,7
-292.0,20.75,515.0,-94.25,-1936.5,764.0,97.25,-1.5,7
-3.25,-58.25,214.5,-20.0,-2012.75,793.0,166.0,45.0,7
402.75,-190.25,-227.75,162.25,-1801.5,878.5,205.5,160.25,7
26.75,-312.25,-917.75,294.0,-1462.0,958.0,185.75,105.75,7
-549.75,-214.0,-1590.25,109.5,-1741.5,669.25,-6.0,194.0,7
-58.25,-192.25,-1750.0,41.5,-1457.0,279.75,106.5,315.0,7
471.25,-185.75,-1589.25,12.25,-1407.25,-28.0,258.0,326.0,7
575.25,-119.0,-857.5,-32.5,-1494.0,-421.25,369.5,468.5,7
777.5,-99.5,56.25,-116.75,-1243.75,-639.0,351.0,685.25,7
731.5,-64.5,659.5,-269.5,-1275.75,-377.0,137.25,732.0,7
612.5,-51.25,1095.25,-313.0,-1000.0,305.75,-75.0,628.25,7
626.75,-16.25,1488.0,-254.25,-1011.5,968.0,-182.0,297.0,7
150.25,-36.25,1657.75,-121.0,-968.75,959.75,-85.75,146.25,7
-712.5,9.25,1314.75,-59.0,-906.0,1054.75,81.75,450.75,7
-984.0,75.5,767.25,-54.5,-563.0,1056.75,90.5,419.75,7
-237.0,57.75,195.25,-92.75,-309.25,971.5,-95.75,-215.0,7
191.25,87.0,-257.0,-82.25,-593.0,457.5,-45.75,-1102.5,7
114.75,191.75,-449.75,49.5,-448.5,309.25,-10.0,-1383.75,7
-238.75,320.25,-802.0,101.25,-171.5,520.25,150.75,-1434.0,7
-787.25,415.25,-873.75,147.75,452.0,410.25,139.5,-1666.0,7
-704.75,330.75,-810.75,116.75,646.5,273.25,107.5,-1734.0,7
-360.0,17.0,-1088.25,-257.25,745.25,117.0,268.75,-1677.75,7
-450.25,-35.5,-1594.5,-863.25,296.75,-173.5,132.25,-900.0,7
-141.5,-57.0,-1220.25,-1199.0,-512.75,-322.75,150.0,235.0,7
139.25,-222.25,-455.0,-782.75,-918.0,-297.75,100.0,278.25,7
241.0,-162.0,-24.25,-345.0,-1108.75,43.75,172.25,289.5,7
454.0,92.5,490.75,-105.25,-1524.5,318.5,536.0,299.5,7
320.75,396.75,665.5,147.5,-1750.5,582.5,761.75,302.75,7
121.0,418.75,877.5,260.75,-1277.5,684.25,615.75,19.25,7
44.75,270.0,601.0,428.0,-416.75,575.5,280.0,-356.25,7
-41.25,24.0,221.75,432.5,-237.75,462.0,-267.0,-330.25,7
75.25,-176.75,-39.25,299.25,-633.75,186.75,-558.25,-321.25,7
275.25,-357.75,-185.5,-71.75,-726.5,-38.0,-687.75,-368.75,7
238.0,-510.5,-231.0,-521.0,-619.75,-170.25,-857.0,-267.25,7
111.5,-243.0,-126.5,-747.75,-572.25,-98.0,-419.75,-208.0,7
-91.5,328.5,40.5,-726.75,-565.0,70.25,-161.0,-29.25,7
-189.0,538.25,-141.75,-571.0,-598.25,175.5,27.5,44.0,7
-139.5,99.75,184.5,-496.75,-627.0,276.25,389.5,298.0,7
-88.25,-156.75,353.0,-342.75,-568.0,177.25,355.5,528.0,7
39.75,-98.0,623.75,-294.25,-652.75,24.75,2.75,651.25,7
482.5,102.5,805.25,-277.25,-493.75,-81.75,20.0,700.25,7
935.0,331.25,628.0,-235.5,-83.25,-225.25,137.5,776.5,7
968.5,543.0,537.5,-317.5,286.25,-430.75,273.0,819.75,7
667.25,507.5,-42.5,-150.25,551.75,-484.75,499.0,819.25,7
12.75,139.5,-313.5,67.5,863.0,-269.75,327.75,887.25,7
-561.5,-21.5,-278.5,16.5,781.75,-42.25,164.75,866.75,7
-884.0,101.25,-268.0,-188.75,428.0,-55.5,318.75,722.75,7
-950.5,483.0,192.25,-448.75,108.25,-416.0,616.5,418.0,7
-689.5,536.25,552.75,-258.5,735.75,-637.75,558.5,412.5,7
-490.25,-44.5,175.5,643.0,1998.25,63.75,-280.5,905.25,7
-1125.75,-1160.0,-330.25,1411.25,1926.5,614.75,-536.75,1061.75,7
-932.75,-1108.25,-413.75,1309.25,1037.75,282.75,266.5,761.25,7
-397.0,-813.25,-416.5,939.25,392.25,130.5,294.75,632.0,7
-292.0,-867.25,-373.0,999.75,-959.25,-60.75,170.25,405.5,7
0.0,-387.75,-268.75,596.5,-1293.75,-291.75,459.0,206.75,7
228.25,-358.5,-337.75,640.0,-843.5,-461.5,524.25,66.0,7
174.0,-295.25,-264.0,447.25,-69.75,-763.25,345.0,-115.5,7
165.75,-206.0,-75.0,392.5,464.0,-756.0,105.75,-231.0,7
118.0,-217.25,-167.75,512.25,496.0,-425.75,-16.75,-406.0,7
63.5,-74.25,-292.0,508.25,597.75,48.75,-134.25,-550.25,7
-181.25,-135.75,-208.0,566.5,1042.75,533.75,156.25,-686.5,7
-146.0,48.0,-153.0,368.25,1488.75,858.0,420.5,-817.25,7
-148.25,32.75,-311.25,302.0,1027.5,821.75,353.5,-911.5,7
-76.75,177.5,-302.75,125.75,-360.75,568.75,48.25,-981.25,7
22.0,258.75,39.75,-93.75,-1017.25,416.75,-221.0,-1004.0,7
172.25,287.75,284.5,-315.0,-643.5,303.5,-238.0,-987.5,7
278.25,270.75,91.5,-355.25,82.5,123.25,-178.5,-910.75,7
319.5,238.75,-201.25,-357.0,278.0,50.0,-86.0,-845.0,7
403.75,293.75,-378.5,-343.0,484.5,233.75,263.0,-819.0,7
416.5,304.75,-239.25,-375.5,538.75,631.0,810.25,-858.25,7
429.5,335.25,379.75,-507.5,627.25,950.75,701.0,-891.5,7
399.0,314.5,580.0,-639.25,1071.0,915.25,266.5,-909.75,7
257.25,338.75,592.75,-694.0,1351.25,904.75,138.25,-900.75,7
40.75,274.5,600.75,-618.75,1606.75,884.75,272.75,-879.75,7
-111.25,278.25,955.25,-640.0,1513.75,899.75,577.0,-851.75,7
-325.25,224.25,949.25,-473.75,1503.25,954.0,961.0,-791.0,7
-268.25,153.25,107.75,-221.25,1423.5,734.0,789.5,-870.5,7
-61.5,129.75,-156.25,-125.0,1282.75,468.75,602.0,-936.25,7
74.5,108.25,-452.0,-183.25,1250.5,195.5,661.25,-968.0,7
247.5,93.25,-635.0,-202.0,1237.25,-47.25,232.0,-1065.5,7
364.5,113.25,-624.0,-216.25,1253.75,-66.25,-74.5,-997.5,7
479.25,149.5,-543.25,-268.5,1223.5,60.0,-14.75,-972.25,7
482.25,177.0,-254.0,-261.75,1127.75,52.25,764.5,-1073.75,7
509.25,271.75,-110.0,-401.25,834.25,-66.25,1224.25,-1084.0,7
443.25,354.25,122.5,-500.75,759.0,-260.0,1268.5,-1085.5,7
125.25,314.0,152.0,-319.5,1124.0,-457.75,81.75,-971.25,7
63.25,147.25,157.25,-69.0,1406.0,-653.25,-756.75,-815.0,7
212.5,53.0,28.25,113.25,1482.75,-841.0,-969.25,-691.75,7
187.25,-81.75,-206.25,289.75,1479.0,-971.25,-992.0,-551.0,7
312.5,-88.0,-337.75,165.25,1148.0,-1008.25,-35.0,-460.5,7
362.0,-38.25,-313.25,84.0,1070.75,-878.0,690.5,-369.75,7
302.25,-27.25,-108.0,6.25,932.75,-908.5,588.0,-274.5,7
216.75,39.0,79.0,-29.25,754.0,-1039.5,-629.0,-191.25,7
0.75,36.25,86.0,98.5,793.25,-1086.75,-1087.25,-167.5,7
-387.5,25.75,-133.25,161.75,830.0,-1036.5,-643.0,-112.0,7
-864.75,-6.5,-60.25,201.25,708.75,-980.25,457.25,-42.0,7
-632.25,23.75,80.5,60.0,302.25,-861.25,201.5,25.0,7
-327.5,13.25,233.5,-15.0,-77.5,-749.75,-569.0,75.5,7
-133.5,7.25,341.75,0.0,-851.5,-872.75,-446.0,148.5,7
207.25,-17.25,263.75,16.25,-1042.25,-868.0,-240.0,238.5,7
277.5,-14.25,385.5,-123.25,-1172.5,-686.5,114.75,267.75,7
365.75,-9.75,428.0,-107.75,-657.25,-524.0,329.25,362.75,7
305.5,-189.0,425.5,212.75,-370.75,-231.75,-82.25,463.25,7
146.25,-314.5,439.0,349.5,-277.5,36.75,-898.25,549.75,7
-13.0,-329.75,383.5,348.75,-486.25,215.5,-1402.25,703.25,7
-276.5,-311.5,168.25,327.0,-969.0,277.75,-1550.75,775.25,7
-334.75,-259.75,-15.25,228.0,-1665.5,333.75,-798.75,818.0,7
-258.25,-207.25,0.5,143.0,-1989.25,584.0,-666.75,916.25,7
-150.5,-192.75,-58.0,100.5,-1981.5,951.25,-439.75,916.5,7
-29.0,-149.75,-171.25,9.0,-2010.75,1002.75,30.25,895.0,7
-13.25,-113.25,-413.0,-5.25,-1714.75,1061.0,144.75,893.75,7
-209.0,-137.75,-625.25,70.75,-907.5,1115.75,269.5,840.0,7
-282.25,-145.0,-615.25,143.5,-1331.0,1196.75,-7.5,847.0,7
-192.75,-125.75,-455.75,193.5,-1844.5,1333.25,-357.75,852.0,7
-155.25,-98.75,-309.75,195.5,-1711.5,1384.5,-927.25,831.75,7
-144.25,-87.5,-98.75,220.75,-1437.75,1287.0,-737.25,834.25,7
-263.25,-66.5,89.75,248.25,-1414.5,1179.0,76.5,926.25,7
-494.0,-37.25,149.0,238.75,-1412.0,1088.75,456.0,1004.5,7
-684.0,2.5,197.5,215.0,-1666.0,960.0,493.5,1003.25,7
-1052.0,13.0,101.75,208.5,-1495.5,-561.5,130.25,1008.25,7
-1184.5,-17.5,40.25,176.5,-1398.5,-1193.25,-151.75,961.5,7
-967.75,35.5,55.75,67.5,-1612.0,-1279.25,-93.25,929.5,7
-505.0,82.5,-16.25,-33.75,-1443.75,-1294.25,-121.25,944.0,7
160.0,65.0,-158.5,-87.0,-1116.25,-1319.25,-372.25,968.0,7
557.75,75.25,-284.25,-136.5,-895.25,-1335.0,-411.5,979.25,7
769.5,92.75,-408.25,-237.25,-635.0,-1356.0,-228.75,914.25,7
919.0,103.5,-536.75,-310.5,-130.5,-1272.75,-275.25,863.25,7
1061.5,118.75,-535.5,-281.5,178.75,-1090.5,-157.75,811.25,7
951.0,121.5,-207.0,-316.5,504.75,-706.25,86.5,740.75,7
604.5,145.25,53.0,-379.5,1010.5,288.75,10.5,667.25,7
85.0,146.75,170.0,-362.5,1317.0,937.0,-92.75,655.0,7
-416.0,110.5,221.75,-387.25,1593.5,1391.25,-215.75,701.25,7
-202.75,127.75,85.0,-377.75,1817.0,1462.0,160.0,742.75,7
371.5,114.0,68.5,-214.25,2035.0,1116.25,660.75,792.25,7
690.0,11.0,42.25,-51.25,1936.0,753.0,666.25,759.75,7
911.25,-33.5,109.0,123.25,1406.25,560.75,437.0,740.0,7
660.25,-65.0,117.5,368.75,858.75,288.0,604.25,734.0,7
277.75,-66.75,-26.75,302.0,745.25,111.75,1160.0,699.25,7
24.25,-27.25,-48.25,71.5,870.25,269.25,962.75,679.75,7
-322.25,7.25,140.25,-96.75,943.75,451.0,333.75,604.75,7
-347.25,48.25,437.0,-261.5,754.75,560.75,37.25,547.75,7
-71.25,91.75,357.0,-340.75,496.75,521.75,-246.5,510.0,7
30.25,147.25,133.5,-328.75,329.0,299.5,-538.75,484.5,7
-17.25,130.75,88.25,-229.25,192.5,127.25,-689.5,446.25,7
37.5,99.25,-24.5,-277.5,116.0,-65.5,-621.75,388.0,7
57.25,94.5,-3.25,-139.25,-19.0,-302.75,-194.0,337.25,7
-43.25,87.5,-18.25,103.0,-36.5,-406.0,389.25,291.75,7
-199.0,82.25,-158.25,157.75,144.0,-336.25,686.25,239.0,7
-343.25,52.0,-62.75,60.25,72.75,-126.5,226.5,224.0,7
-438.25,42.5,51.5,-74.5,-356.0,131.5,-326.75,252.25,7
-478.5,48.75,171.25,-124.0,-346.25,509.5,-494.5,210.5,7
-389.5,58.5,305.75,-279.75,-153.75,818.75,-647.25,176.75,7
-240.5,79.25,517.5,-419.75,-96.5,977.0,-857.5,137.75,7
-91.5,67.25,389.25,-381.0,-184.0,869.75,-964.75,122.75,7
58.0,82.25,-171.25,72.75,639.25,744.5,-485.25,164.75,7
182.0,95.75,-363.75,354.25,1994.75,686.25,107.75,199.0,7
228.0,12.75,-495.0,35.25,2226.0,597.5,358.0,221.75,7
258.75,36.75,-545.75,-384.75,2174.5,522.25,410.5,223.25,7
269.0,117.5,-518.75,-1057.25,2109.5,132.25,290.75,188.25,7
189.75,161.5,-389.75,-1166.75,2081.75,-522.25,-96.25,134.75,7
101.25,157.5,-229.25,-1077.25,2214.25,-1473.0,-303.25,77.0,7
-71.75,99.0,-278.25,-1039.75,2216.5,-1601.0,96.0,-6.75,7
-223.25,46.0,-319.0,-567.75,2230.25,-1632.25,494.25,-28.25,7
-288.25,-76.0,-352.0,36.0,2153.75,-1505.75,397.0,-66.75,7
-340.0,-93.75,-208.0,536.25,1978.25,-1303.5,114.75,-90.5,7
-317.75,-78.25,-183.5,632.5,1941.25,-1102.5,91.75,-142.25,7
-207.0,-106.5,78.0,408.5,1840.0,-989.0,317.0,-201.25,7
-94.5,-122.25,416.25,385.5,1849.0,-1028.25,336.5,-218.0,7
38.5,-126.25,417.0,359.25,1686.75,-1162.5,91.0,-285.0,7
170.5,-97.25,248.5,193.75,1516.0,-1308.75,-199.0,-279.25,7
158.25,-0.75,-10.5,121.5,1119.5,-1605.0,-50.0,-348.0,7
255.25,287.25,-128.0,-21.25,370.75,-1811.25,454.25,-518.25,7
421.75,574.5,30.75,-72.75,94.0,-1508.25,799.75,-757.75,7
469.5,788.75,352.25,-101.25,81.0,-1279.0,1023.5,-827.5,7
526.75,763.25,340.0,-215.25,-139.0,-1089.0,994.25,-810.25,7
418.5,667.25,158.75,-214.25,-789.0,-929.0,832.25,-766.25,7
192.75,424.25,87.75,-205.25,-1163.5,-709.25,793.25,-561.25,7
-181.5,-16.0,251.75,-212.25,-1218.25,-413.75,1055.5,-371.0,7
-344.75,-345.0,588.25,4.25,-1058.75,-31.25,1278.0,-212.5,7
-473.25,-536.25,712.75,325.25,-708.0,433.5,984.75,-132.75,7
-625.25,-535.0,660.0,440.0,-102.25,1010.0,550.5,-236.75,7
-613.25,-547.5,457.75,422.5,459.25,1126.75,326.0,-389.75,7
-577.75,-355.5,343.0,308.75,225.25,1240.75,-203.0,-533.0,7
-581.25,-3.5,294.25,251.5,-123.5,1426.25,-656.5,-658.0,7
-541.25,160.25,208.5,187.25,-384.0,1472.75,-403.25,-793.5,7
-558.5,191.25,237.0,140.75,-926.5,1390.25,427.5,-806.5,7
-583.5,63.25,102.25,36.0,-1382.75,1368.5,709.75,-799.25,7
-550.25,-139.0,-99.75,-159.5,-1520.75,1310.75,409.0,-819.75,7
-498.75,-301.75,-138.25,-55.25,-1525.25,1107.5,177.75,-820.0,7
-414.75,-398.5,-92.5,141.25,-1485.5,953.25,-396.5,-798.25,7
-363.5,-416.25,-62.0,335.5,-1470.75,860.0,-507.25,-717.0,7
-343.5,-388.5,12.5,466.0,-1634.25,799.0,-250.0,-634.5,7
-209.75,-353.0,341.25,582.0,-1539.5,701.0,-4.0,-567.25,7
-149.25,-292.5,770.75,654.5,-1397.5,489.75,-15.75,-505.75,7
-77.0,-225.75,813.25,633.0,-1374.25,147.75,-372.75,-471.75,7
91.0,-193.75,760.75,622.75,-1304.0,257.0,-1242.75,-439.0,7
206.75,-190.0,539.0,532.25,-1161.75,707.5,-1668.5,-413.0,7
254.0,-200.5,-280.0,384.75,-965.25,1249.5,-1370.25,-423.0,7
220.0,-202.75,-931.25,300.75,-1033.25,1708.0,-900.0,-380.25,7
162.25,131.75,-1318.75,294.25,-1279.75,2151.25,-760.5,-384.25,7
213.0,766.25,-1294.5,280.5,-1385.25,2248.25,-352.5,-378.5,7
312.75,782.75,-1286.75,296.5,-1318.5,2073.5,20.5,-324.5,7
413.25,433.5,-1224.0,493.0,-1304.0,1932.5,-218.0,-305.25,7
401.5,-253.75,-1012.75,880.0,-1306.75,1754.25,-324.5,-305.0,7
241.75,-1098.5,-852.5,964.5,-1400.5,1477.25,40.25,-338.5,7
101.25,-1142.25,-641.5,718.25,-1353.25,1169.25,264.5,-350.75,7
63.5,-1135.25,-261.75,475.0,-1286.25,993.25,-144.0,-350.25,7
62.5,-1118.75,-21.75,35.75,-1192.0,910.5,-255.0,-395.25,7
12.25,-804.5,-185.75,-498.5,-1254.0,806.75,-266.0,-419.5,7
-59.75,-190.0,-87.0,-884.25,-1256.5,817.0,-95.75,-356.0,7
-36.5,235.5,-68.75,-976.75,-790.5,942.25,374.75,-150.0,7
-17.0,364.5,-190.75,-736.25,-266.75,1050.5,172.25,-83.25,7
-267.25,343.25,28.25,-47.75,-152.25,878.75,-127.0,-47.25,7
-532.75,-31.25,230.5,522.25,84.0,379.25,-328.25,142.75,7
-419.0,-621.0,82.0,592.0,412.75,-149.25,-355.0,373.0,7
-384.25,-995.25,-96.0,525.25,141.25,-557.0,-334.0,648.25,7
-422.75,-1258.75,-264.25,449.0,-830.5,-679.75,-252.0,973.5,7
-249.75,-957.0,-245.5,298.25,-1523.75,-707.5,-68.25,1121.75,7
-33.0,-370.25,22.25,71.75,-1768.25,-848.5,-10.25,1021.25,7
107.75,265.25,-44.5,-178.25,-1980.5,-1075.25,49.75,888.0,7
56.5,642.25,22.75,-200.0,-2185.5,-1093.5,225.25,808.0,7
-65.75,817.0,523.75,-77.75,-2233.5,-1127.0,288.75,396.0,7
-45.0,859.5,597.0,326.75,-2075.25,-1283.0,280.0,-74.5,7
139.0,805.0,93.0,551.25,-1574.25,-1341.25,153.75,-325.75,7
348.0,1044.5,-288.25,385.0,-1215.75,-1432.25,-28.75,-434.5,7
307.25,1042.25,-233.25,388.5,-1244.5,-1292.75,-137.5,-425.25,7
69.0,866.75,-412.25,523.5,-1334.0,-1192.0,-347.0,-568.25,7
-134.5,1099.5,-574.75,470.25,-1002.25,-1200.25,-428.0,-703.25,7
-225.25,1262.75,-620.75,-125.75,-921.75,-1217.75,-449.25,-576.25,7
-73.75,679.25,-551.25,-296.25,-541.25,-1096.0,-454.5,-537.75,7
188.5,22.5,-347.75,-189.0,-379.0,-679.75,-414.5,-746.25,7
341.5,-654.75,-50.75,-231.0,-344.75,-199.75,-247.75,-954.75,7
481.25,-649.75,204.25,-827.75,-447.5,191.5,112.75,-498.5,7
518.0,-638.75,220.25,-1042.5,-539.0,416.25,530.5,37.25,7
403.5,-660.75,216.25,-548.0,-534.25,404.75,1012.75,376.0,7
320.0,67.0,176.25,-237.75,-554.5,347.25,1267.0,620.0,7
303.5,1184.5,227.0,-677.0,-355.25,359.5,1399.25,785.0,7
344.25,1264.75,342.0,-1346.75,-179.5,324.75,1495.5,1011.25,7
380.0,1238.0,338.0,-1323.75,120.25,236.75,1007.25,1157.0,7
342.25,103.5,317.0,-1308.5,348.5,234.5,274.75,1056.25,7
281.75,-759.5,308.0,-1278.5,677.25,382.25,257.5,768.5,7
234.25,-784.25,298.25,-1250.75,1027.5,344.0,-20.25,587.75,7
194.25,-781.75,221.75,-1220.75,1309.0,80.5,-442.0,334.0,7
60.0,-328.75,185.25,-1008.25,1479.5,-28.75,-256.5,124.75,7
-131.75,250.25,393.0,-89.0,1575.25,84.75,-185.75,34.5,7
-141.0,638.5,734.0,344.75,1606.75,213.25,-302.25,-30.75,7
50.0,1147.5,904.5,907.75,1512.25,265.5,-317.5,181.5,7
118.0,1124.0,737.0,921.75,1516.25,294.0,-624.0,464.75,7
-60.5,1110.0,442.0,-125.75,1680.0,329.75,-735.5,410.0,7
-215.25,1097.5,107.0,-600.5,1778.0,390.25,-51.75,147.5,7
-266.25,-149.75,-210.0,171.5,1670.5,332.75,366.5,51.25,7
-208.25,-949.0,-180.25,973.5,1547.25,241.75,271.75,-71.25,7
-132.5,-973.75,-67.5,1009.5,1412.0,234.0,236.0,-67.0,7
-99.25,-985.25,-88.25,1042.25,1533.0,116.25,473.0,161.75,7
10.25,-1004.25,-80.0,1059.25,1698.0,-12.25,771.25,391.25,7
113.5,355.0,60.0,1059.5,1785.25,-151.5,1292.25,430.0,7
152.0,1012.5,560.5,1033.0,1689.0,-204.75,884.25,411.25,7
244.75,976.75,926.5,1021.75,1583.25,-120.75,173.5,586.0,7
374.25,975.75,428.0,1052.5,1535.25,-23.0,-470.5,312.0,7
297.5,-666.0,-31.0,1077.25,1334.5,23.0,-678.5,-65.5,7
157.75,-1043.5,-367.75,1087.0,1176.0,-36.0,-518.75,-411.0,7
93.5,-1071.25,-827.0,-686.5,976.25,-94.5,-399.75,-915.0,7
-45.5,-1080.75,-792.0,-928.5,1008.25,-36.0,-724.5,-894.75,7
-200.0,-1067.25,-949.5,-928.0,1096.0,-76.0,-774.0,-927.75,7
-221.75,47.0,-757.5,-915.25,1112.25,-135.0,-62.75,-1017.75,7
-122.5,944.75,-366.5,-921.75,1227.25,-195.5,413.75,-987.0,7
-29.0,942.75,135.5,-968.0,1289.0,-433.0,575.0,-1109.0,7
81.75,960.5,759.25,-984.0,1162.5,-518.75,462.25,-610.25,7
198.0,986.5,1360.5,1024.75,1125.75,-655.0,-126.25,29.75,7
346.0,977.75,1340.5,1044.75,740.75,-830.25,-663.0,410.0,7
555.5,963.5,843.0,1081.5,265.25,-783.25,-583.0,466.25,7
494.5,25.0,538.75,1102.25,-182.0,-462.75,-64.25,-4.0,7
-29.5,-575.25,240.0,1119.75,-444.75,-131.25,195.0,-126.5,7
-503.0,-985.25,-116.5,1139.75,-531.75,-122.75,340.75,-248.25,7
-600.0,-1132.0,-595.75,1160.5,185.0,-179.0,566.5,-431.25,7
-545.0,-1036.5,-543.75,1165.25,665.75,-145.0,493.5,-146.75,7
-594.0,664.75,-542.25,1152.25,383.25,-249.25,488.25,162.0,7
-774.75,908.5,-808.25,1135.25,381.25,-368.5,599.0,393.25,7
-902.25,907.25,-881.0,-894.75,362.5,-365.5,478.25,371.0,7
-1009.5,934.0,-670.5,-899.0,277.75,-402.0,-8.0,182.0,7
-979.75,-358.0,88.0,-891.75,231.5,-349.5,-375.5,-27.75,7
-955.5,-969.75,83.25,-543.5,187.0,-239.0,-524.5,-69.25,7
-638.25,-916.25,-330.5,-905.5,24.5,-1.5,-605.5,180.75,7
-223.25,-881.0,58.0,-916.75,-269.5,311.5,-372.5,273.75,7
96.25,115.5,164.75,-912.25,-533.75,521.5,87.5,85.0,7
574.25,340.0,-448.75,427.75,-612.0,415.75,359.75,-417.5,7
740.0,1059.0,-726.25,713.0,-595.25,138.75,417.25,-815.75,7
682.5,1067.5,-772.0,-915.75,-766.25,259.75,503.5,-749.5,7
543.25,-917.25,-793.75,-895.0,-663.75,470.5,107.25,-723.75,7
444.25,-966.75,-329.25,-885.0,-564.75,669.75,-190.0,-216.5,7
410.0,-1032.0,222.75,130.0,-446.5,1163.25,74.0,240.0,7
218.75,-870.25,298.75,-921.0,-267.75,1390.25,65.0,783.5,7
35.25,-588.5,86.0,-977.0,-463.75,1381.0,-181.0,1172.75,7
-141.5,-1135.75,-2.5,-747.5,-554.0,1246.25,-248.25,1077.0,7
-148.0,-1090.0,85.25,954.75,-583.5,1142.25,-294.75,1125.0,7
-95.25,-1031.75,85.75,962.0,-670.0,916.5,-354.75,939.0,7
-69.75,-532.25,4.25,983.75,-724.25,368.5,-288.75,652.5,7
-119.0,-782.5,4.5,1000.0,-899.25,-614.75,-273.75,94.5,7
-216.25,-1008.25,117.75,1019.0,-961.0,-711.75,-222.0,-459.0,7
-193.75,-636.0,454.25,1003.25,-901.0,-855.25,-152.75,-419.5,7
-133.0,329.0,569.0,991.5,-512.0,-872.0,-121.75,103.0,7
-32.75,1019.25,233.25,971.0,-94.0,-578.25,-57.0,857.0,7
83.5,981.0,5.25,968.75,32.25,-526.5,44.75,1318.75,7
146.75,959.25,-53.0,971.5,17.75,-448.75,262.25,1544.0,7
108.5,948.0,-67.0,980.75,-87.25,-717.5,696.25,1567.5,7
71.0,954.25,-101.5,-1015.25,-110.5,-999.0,882.75,1363.5,7
37.0,967.0,279.5,-1041.0,-172.75,-1011.75,473.5,1300.25,7
64.0,956.75,1170.75,-1070.75,-320.25,-486.0,81.75,1013.0,7
44.25,975.0,1364.5,-1084.75,-529.25,-73.5,-402.5,613.0,7
-1.75,353.0,634.0,-1069.5,-668.0,-52.75,-625.0,825.75,7
27.5,-461.5,-7.0,-1048.75,-578.25,-176.0,-456.25,907.5,7
63.25,-1061.25,-761.5,-1055.25,-499.75,-350.25,-327.5,790.0,7
87.5,-1084.75,-991.0,-1059.5,-520.25,-438.75,-236.5,856.5,7
151.5,-1098.0,-871.0,-1043.75,-465.5,-706.0,-368.5,1170.75,7
255.75,-1090.75,-581.75,-1030.25,-564.75,-959.25,-289.5,1455.5,7
237.5,-748.75,38.0,-92.25,-668.5,-890.5,-290.75,1168.75,7
166.75,105.75,754.0,-870.0,-639.25,-554.5,-450.75,1102.5,7
124.0,968.25,912.0,297.5,-436.0,-231.25,-528.0,1214.25,7
124.75,1010.5,429.0,807.0,-197.0,255.75,-301.25,902.75,7
120.75,983.75,61.0,1032.75,-163.25,752.0,188.5,442.75,7
110.25,-1037.75,-410.25,1035.25,-64.5,795.25,435.75,107.5,7
97.5,-1054.75,-518.25,1023.0,-22.5,704.5,438.5,-32.25,7
75.5,-1093.0,-506.75,1000.5,-76.5,562.5,181.5,-218.5,7
189.0,-1098.0,-446.0,970.5,-60.75,317.0,-154.25,-410.75,7
224.75,-594.5,-40.25,900.5,87.5,91.25,-423.0,-100.5,7
126.25,-177.25,993.0,844.0,305.25,-0.25,-140.0,148.75,7
80.5,669.75,1016.25,847.0,429.5,35.25,407.25,256.5,7
118.5,1033.25,778.5,864.25,305.0,268.75,687.5,433.25,7
178.25,1055.5,46.75,905.0,162.25,571.75,569.0,302.25,7
97.0,1077.5,-543.0,863.0,-9.25,787.0,210.25,116.5,7
-49.0,1087.0,-585.0,623.25,-465.5,1135.0,285.0,41.0,7
-117.0,1101.25,-250.0,201.5,-816.25,1120.25,561.25,269.25,7
-198.25,1087.25,-184.5,14.0,-715.5,670.5,576.25,232.75,7
-395.5,1086.5,195.5,1.5,-32.25,-36.75,386.25,-66.25,7
-468.75,1085.5,-177.75,-115.25,512.5,-621.75,30.75,42.5,7
-429.0,1070.75,-474.75,-187.25,658.0,-513.25,-522.25,251.0,7
-317.75,1059.25,-452.0,-428.0,832.25,-399.75,-661.25,369.5,7
-225.5,899.75,-539.0,-487.75,886.0,-617.0,-529.25,654.5,7
-333.25,-433.0,-314.5,-560.0,1109.25,-450.0,-416.0,885.5,7
-289.75,-969.5,-409.0,-659.75,1348.25,-333.5,-195.75,650.75,7
-17.0,-982.25,-391.0,-903.5,1301.25,-451.25,-276.75,249.25,7
231.25,-1028.75,-108.25,-946.0,1027.0,-305.25,-239.0,-159.5,7
359.75,-1024.0,-124.75,-1022.5,585.75,-255.25,-184.25,-234.5,7
379.5,122.25,-570.25,-1049.5,63.0,-95.25,-408.0,245.25,7
429.0,1026.75,-833.5,-866.5,-248.25,113.25,-539.25,593.0,7
408.5,928.75,-734.5,-751.5,-387.75,312.0,-427.25,30.75,7
161.75,1017.0,-680.0,-702.75,-383.25,504.5,-115.0,-965.75,7
-86.75,497.75,-426.25,-683.25,42.0,507.5,-31.25,-1114.25,7
-85.75,-100.25,-72.25,-369.75,232.5,535.0,44.5,-351.75,7
-41.0,-783.5,191.5,-68.75,-86.25,532.5,360.0,457.5,7
-12.5,-337.0,365.25,104.75,-227.25,615.25,438.25,607.0,7
212.0,14.25,389.5,335.5,-336.0,729.0,662.25,828.25,7
301.25,-916.75,258.25,753.5,-223.25,950.0,893.5,331.25,7
161.75,-1074.5,177.25,999.25,65.75,1111.0,927.0,-566.0,7
-147.75,-1058.0,226.0,1084.5,-78.75,1157.0,992.0,-1028.5,7
-469.25,-726.25,259.0,1068.25,-163.25,1157.25,961.0,-1352.0,7
-649.75,-907.0,239.25,948.0,-82.0,1065.25,1138.5,-1046.75,7
-726.25,-1026.25,173.0,930.5,-86.0,940.75,1257.0,-907.75,7
-612.25,-305.75,238.25,-666.25,-57.0,561.0,1238.25,-895.75,7
-480.75,507.0,441.0,-1079.25,-30.5,314.0,1229.0,-542.0,7
-436.5,987.0,524.25,-338.25,1.75,282.25,1261.0,-568.5,7
-382.0,1019.5,462.25,723.25,-48.5,237.25,1179.25,-777.25,7
-262.0,1070.0,467.5,-639.5,-210.25,229.75,1069.0,-1233.0,7
-56.5,1078.25,522.75,-735.25,-271.0,232.25,829.75,-1803.75,7
93.5,963.0,629.75,-644.0,-140.75,206.5,639.25,-2275.5,7
161.25,930.75,571.75,-873.5,-70.5,143.75,445.25,-2217.25,7
287.0,932.25,361.25,-710.75,-172.0,181.75,158.75,-2095.0,7
200.75,922.5,208.75,-676.75,-279.25,202.5,-68.5,-1904.25,7
13.25,918.5,319.25,-194.25,-401.5,276.0,-274.0,-1370.0,7
-74.0,966.5,479.0,357.25,-449.75,305.0,-535.25,-1122.25,7
-77.5,857.25,85.5,384.0,-536.0,289.75,-647.25,-1299.75,7
-141.0,144.75,-350.0,964.5,-827.75,328.75,-771.75,-1689.5,7
-223.5,-292.5,-337.5,972.25,-796.5,209.75,-862.75,-1372.25,7
-92.0,-959.5,-289.75,871.25,-703.5,100.5,-969.0,-1322.0,7
-134.75,-910.0,-502.25,531.25,-309.75,44.25,-976.0,-1455.25,7
-171.5,-871.75,-441.0,24.25,274.5,53.75,-990.5,-1609.0,7
-149.0,198.25,132.5,-369.5,552.75,-60.0,-1027.5,-1742.25,7
-179.0,588.75,254.75,-82.75,555.25,-117.5,-934.0,-1429.75,7
-222.0,838.75,-223.0,97.0,583.5,-81.25,-891.25,-1310.5,7
-223.25,564.25,-541.5,125.25,468.25,-69.25,-822.25,-412.75,7
-224.25,696.25,-766.75,197.75,376.5,-41.5,-786.25,470.5,7
-274.75,420.0,-850.0,238.5,267.0,-66.25,-811.75,923.0,7
-182.5,342.0,-699.75,218.0,146.5,-50.25,-826.5,1306.5,7
-78.0,275.0,-502.0,81.75,154.0,-77.5,-829.0,1142.5,7
45.75,213.75,-330.0,130.75,463.75,-66.75,-748.5,1226.5,7
148.75,162.0,-244.0,138.75,874.5,-30.0,-513.25,1267.5,7
300.0,-39.0,-259.5,139.5,1028.25,39.75,-174.25,1091.25,7
448.5,68.5,40.0,-21.25,778.25,51.25,11.0,799.25,7
512.0,239.75,1021.0,-567.25,214.5,-191.5,355.0,311.75,7
591.5,857.5,1482.0,-742.25,-170.25,-372.5,342.75,434.0,7
676.25,680.75,1042.5,-426.75,358.75,138.0,-250.75,987.75,7
580.5,41.5,-333.25,139.25,605.75,304.25,-720.75,1064.5,7
412.5,-154.25,-1123.75,828.0,531.75,-115.5,-892.25,1125.25,7
341.0,-280.5,-1548.25,910.5,828.25,-173.5,-708.25,1079.0,7
255.0,-98.25,-1682.25,935.25,803.25,-440.5,-646.0,1284.0,7
210.0,-18.25,-1467.5,1059.25,704.75,-412.75,-459.25,1395.25,7
214.0,373.75,-1302.75,182.0,300.75,-362.75,305.5,879.5,7
315.5,756.75,-1049.75,-132.5,174.5,-293.5,219.25,1470.75,7
394.75,416.5,-1045.5,254.0,528.25,-246.75,-517.75,2168.0,7
359.75,-130.75,-1181.5,743.75,623.0,-322.5,-818.0,2368.25,7
201.25,-359.25,-1108.75,428.25,348.0,-243.5,-665.0,1989.75,7
-9.5,-418.5,-885.75,-267.75,376.5,-516.5,-786.25,1669.0,7
-79.0,-544.0,-459.0,-514.0,524.75,-690.75,-998.25,1681.25,7
-100.5,-377.25,6.75,-302.75,421.25,-991.5,-1009.0,1258.0,7
-104.75,112.5,770.25,-832.5,-54.0,-1518.75,-333.0,432.25,7
241.25,816.0,1977.5,-870.5,-346.5,-1802.25,107.25,453.25,7
447.0,720.75,2322.75,-277.75,-87.75,-1713.75,-42.25,973.5,7
377.0,608.75,2347.0,320.0,100.25,-1567.75,116.0,884.25,7
471.0,738.0,2387.5,452.0,303.0,-1582.75,170.0,1007.25,7
387.5,665.25,1904.0,591.25,447.5,-1324.75,16.5,1047.0,7
-7.0,614.0,1664.25,615.0,409.25,-985.0,75.75,753.5,7
-194.75,367.5,1418.0,737.25,484.25,-580.5,-233.5,563.5,7
-465.75,81.5,989.0,726.25,505.25,-473.0,-209.25,451.0,7
-499.25,-13.25,432.25,754.5,607.25,-297.0,-320.75,560.25,7
-523.25,-27.25,-34.25,73.25,648.25,-54.75,-278.5,123.75,7
-383.25,-141.0,-134.5,-190.5,775.25,258.5,-385.25,-75.5,7
-300.0,-682.5,-243.25,-397.5,743.0,506.25,-408.75,-31.0,7
-251.25,-1035.25,-127.25,-1011.5,659.75,611.25,-462.75,-311.75,7
-152.25,-1043.75,24.75,-972.25,581.0,652.25,-611.5,-809.25,7
-122.25,-910.25,207.0,-994.5,366.75,531.5,-785.75,-870.0,7
58.25,-567.0,343.75,-900.75,109.25,485.5,-1028.0,-490.0,7
223.75,-477.0,243.5,-879.25,-170.75,303.25,-1042.0,-399.75,7
335.25,-615.25,-33.25,-813.25,-389.25,187.25,-983.25,-308.25,7
329.75,-508.5,-252.75,-803.75,-618.0,206.0,-620.75,-364.25,7
227.0,-445.75,-648.25,-539.75,-654.5,205.75,-372.25,-349.5,7
130.25,-197.25,-1286.75,61.75,-555.0,465.5,-347.25,-394.75,7
206.5,-31.25,-1257.75,864.75,-327.0,823.5,-404.25,-607.75,7
303.25,-56.25,-1150.75,1232.0,-268.5,781.75,-351.0,-734.75,7
255.5,-128.5,-1074.25,1207.25,-425.75,682.25,-135.5,-793.25,7
40.75,-364.0,-1138.75,1203.0,-451.75,674.5,119.0,-334.0,7
-141.0,-542.0,-1247.75,1149.75,-359.75,730.75,185.25,-590.25,7
-360.25,-914.75,-1266.0,1108.5,-38.0,902.0,-98.5,-813.75,7
-619.25,-459.0,-1092.25,1003.5,325.0,1037.0,-270.25,-80.75,7
-617.75,419.5,-131.5,441.25,512.0,1249.75,78.0,-78.25,7
-568.0,181.25,481.25,548.5,607.25,1243.5,823.5,29.25,7
-481.25,-292.5,501.25,78.75,653.75,1096.25,1310.25,109.5,7
-362.5,-97.5,601.25,-641.0,454.0,1043.25,1266.75,-373.5,7
-361.0,-43.75,561.5,-524.0,364.75,1185.75,1009.0,-298.5,7
-651.0,-422.5,534.5,-321.75,802.5,1889.5,604.25,-263.75,7
-1237.0,-433.25,585.25,-318.75,770.0,2024.5,536.75,-724.25,7
-1081.75,-390.75,757.5,446.75,592.0,1480.0,634.0,-952.0,7
-1217.75,-1069.25,968.75,1255.75,283.0,1037.0,654.5,-935.5,7
-1816.5,-1458.25,869.75,1130.5,-245.75,281.5,827.5,-1150.0,7
-1741.25,-1347.25,469.75,798.0,-650.0,-415.75,723.0,-1454.75,7
-1634.75,-1207.75,11.75,7.75,-965.75,-891.0,778.0,-1488.5,7
-604.5,-1035.0,-443.5,-786.75,-1036.0,-958.25,891.5,-1356.75,7
610.25,-935.0,-773.25,-1048.25,-1167.5,-1092.25,928.25,-1487.75,7
781.5,-589.5,-956.5,-1103.0,-1196.25,-1127.75,982.0,-1362.0,7
998.5,111.5,-925.75,-1113.5,-1174.75,-943.25,1184.75,-1220.25,7
1069.25,1065.0,-856.0,-1353.5,-1335.75,-904.0,1273.0,-1277.25,7
1059.25,1393.0,-748.75,-484.75,-1068.5,-870.0,1262.75,-784.0,7
701.25,1395.25,-722.25,519.5,-920.75,-630.25,1283.75,-414.5,7
362.5,1424.25,-779.5,462.5,-928.75,-691.5,1282.75,-84.0,7
404.25,1454.25,-805.25,420.25,-1001.5,-1126.5,1324.5,85.0,7
781.25,553.0,-866.75,136.0,-1192.5,-1172.0,1385.75,73.25,7
977.5,-32.75,-1029.5,-102.0,-1242.75,-1592.75,1512.0,34.0,7
1296.25,185.25,-1084.0,-92.5,-1357.5,-2098.25,1849.0,-120.25,7
1274.75,187.0,-830.5,-852.5,-1302.0,-2271.25,2056.0,-54.0,7
786.25,387.25,-427.25,-1205.25,-1144.25,-1787.5,1974.25,-39.25,7
591.5,1014.5,381.5,-1430.25,-961.0,-1033.25,1753.25,-122.75,7
432.5,1072.75,883.75,-1413.25,-337.5,-77.0,1489.75,28.0,7
370.0,401.25,1009.0,-761.0,25.75,881.75,1243.25,-73.25,7
305.25,128.75,1178.5,-99.75,26.5,1187.25,1047.0,-171.75,7
116.5,-323.5,1108.0,-180.0,-39.5,899.5,844.0,-261.75,7
372.75,-744.75,1225.5,304.25,-163.75,299.25,631.0,-330.75,7
456.75,-922.5,1478.25,1030.0,49.5,66.25,428.75,-241.5,7
-131.25,-1009.75,1368.0,1053.25,197.75,342.0,85.5,-147.5,7
-757.25,-698.0,1270.75,357.0,333.5,598.5,-132.25,-34.0,7
-1014.5,-38.0,1043.5,-606.5,445.5,1143.75,-228.25,111.75,7
-685.25,391.75,244.0,-827.0,591.0,890.5,-338.25,211.5,7
-479.0,413.75,-580.0,-796.5,745.0,-548.75,-260.5,121.5,7
-267.25,181.75,-753.0,-795.75,855.0,-944.75,-202.5,-144.5,7
-154.75,-15.0,-870.0,-824.25,917.0,-446.25,-164.5,-503.25,7
47.75,-647.0,-1067.0,-881.25,929.0,545.75,-137.5,-461.75,7
82.75,-1179.5,-1180.5,-320.5,902.0,1411.25,-198.25,-174.25,7
-168.75,-1260.75,-1195.5,503.75,822.5,1803.5,-232.0,328.25,7
-499.75,-1277.5,-943.5,1144.75,755.75,2073.5,-331.75,753.5,7
-747.25,-1276.5,-966.0,1164.5,659.25,2080.5,-456.5,759.0,7
-890.5,-679.25,-1014.75,1251.75,631.5,1815.25,-424.0,623.75,7
-878.5,132.75,-918.5,612.0,534.75,1748.25,-330.0,409.0,7
-775.25,744.5,-496.25,191.0,451.5,1700.25,-278.0,409.75,7
-716.5,747.25,512.75,533.0,380.5,447.25,-377.25,656.25,7
-740.25,788.25,646.0,572.75,269.5,-371.0,-486.5,1032.5,7
-903.0,550.75,683.25,756.5,150.25,-394.5,-502.0,1374.5,7
-921.25,654.75,625.75,550.25,82.25,-348.5,-527.0,1740.5,7
-583.0,137.25,524.5,-177.25,109.25,-412.5,-426.5,1880.75,7
-85.75,-494.5,615.25,82.5,-26.75,-487.5,-514.75,1686.25,7
356.25,-978.5,747.25,1118.5,-113.25,-504.0,-451.75,1798.5,7
468.5,-1122.5,683.5,1179.75,21.75,-38.25,-261.0,1881.0,7
200.25,-1360.75,577.75,1206.25,225.0,1460.0,-395.75,1703.25,7
-137.25,-1540.75,342.0,1350.0,391.75,2035.0,-663.5,1490.0,7
-342.5,-1530.75,211.0,741.0,354.75,1748.5,-1134.0,917.25,7
8.25,-438.75,-244.5,-195.0,407.5,1520.75,-1197.0,484.25,7
374.5,208.25,-414.25,-489.75,531.75,820.0,-1034.5,81.25,7
223.0,310.75,-601.25,-500.75,529.75,-273.5,-986.0,-385.75,7
108.5,335.5,-953.25,-565.75,511.25,-994.25,-927.75,-742.0,7
-159.5,225.0,-1113.75,-667.5,267.0,-1392.5,-878.0,-1041.25,7
-480.75,588.75,-944.0,-847.5,163.75,-1220.0,-865.75,-1046.5,7
-367.5,857.0,-892.5,-1001.25,44.25,-984.25,-791.5,-1027.5,7
-374.75,902.75,-985.5,-1106.0,36.5,-948.0,-749.25,-1047.0,7
-257.0,1077.75,-1004.5,-659.0,38.5,-787.25,-668.0,-1254.75,7
-153.5,1124.5,-872.5,345.5,-73.0,-574.75,-632.0,-1350.25,7
-13.5,1153.25,-789.0,696.75,-194.75,68.25,-597.0,-1192.75,7
29.25,875.5,-755.0,654.0,-377.75,-79.5,-349.75,-1087.25,7
77.25,459.0,233.25,603.75,-422.75,-177.75,-205.0,-913.5,7
392.25,143.75,1132.5,560.25,-376.75,-340.75,-157.75,-887.75,7
682.75,-45.25,1205.0,517.0,-222.75,-553.75,-101.0,-861.0,7
711.25,-315.0,993.25,511.0,-48.0,-815.25,10.5,-708.25,7
452.25,-254.5,797.0,534.25,58.25,-1112.25,126.5,-562.0,7
243.0,-1.25,623.0,567.75,125.5,-1255.0,174.0,-431.5,7
344.0,9.5,697.75,451.75,198.75,-1451.0,173.75,-324.25,7
612.0,59.5,754.0,400.75,256.25,-1394.0,139.25,-352.75,7
795.0,26.75,577.0,-203.0,299.25,-1389.0,51.25,-445.25,7
949.5,53.25,560.0,-1330.25,324.0,-1369.5,10.25,-442.25,7
885.25,72.25,272.25,-1310.5,249.75,-1279.75,41.5,-333.25,7
717.25,276.75,-126.75,-1323.75,131.0,-1247.5,-111.5,-109.0,7
458.0,546.25,-204.75,-1111.25,105.5,-1229.75,-221.25,70.75,7
202.0,332.5,-325.25,169.25,95.25,-1018.0,-188.5,163.0,7
46.5,119.25,-358.25,-443.75,140.75,-796.75,-55.5,227.25,7
-149.5,124.5,-314.25,-253.75,140.5,-525.5,257.0,492.25,7
-302.0,135.75,-273.25,-488.75,80.0,-159.75,657.25,851.5,7
-453.5,-122.0,-179.5,-182.5,31.5,346.25,840.25,1217.75,7
-407.75,415.0,-226.5,66.5,-74.25,646.0,800.5,1519.75,7
-191.5,1142.25,-277.5,698.5,-192.75,623.25,833.25,1521.25,7
-13.0,1099.75,-418.25,943.5,-403.5,490.0,979.5,1349.5,7
-30.5,1085.0,-580.0,912.75,-537.5,241.0,1011.5,996.5,7
16.5,1063.75,-508.75,966.25,-606.0,-252.0,814.75,678.5,7
440.25,1048.25,-481.75,963.0,-677.25,-764.75,639.75,549.25,7
769.25,312.75,-610.25,778.5,-676.5,-750.25,426.0,479.25,7
856.75,-977.25,-558.5,-343.25,-626.5,-170.0,161.5,392.5,7
724.0,-1001.5,-180.25,-1060.5,-616.0,331.5,4.5,363.75,7
248.5,-1011.75,286.25,-1021.25,-543.5,705.5,-103.25,287.25,7
-148.75,-1012.0,453.0,-597.5,-466.5,1140.5,-142.25,341.75,7
-455.5,-999.0,341.75,-959.0,-471.75,1064.75,-7.25,414.5,7
-629.25,-974.25,266.5,-974.75,-435.25,1069.75,152.75,271.0,7
-581.75,-982.5,383.5,-972.5,-448.75,1207.5,269.25,156.0,7
-254.0,-686.0,559.25,-966.0,-582.0,1309.25,353.75,4.75,7
63.5,556.0,517.0,-952.75,-657.25,1311.0,339.75,-77.0,7
153.75,918.75,420.25,-805.75,-730.0,1361.25,219.25,-47.25,7
64.25,985.0,329.75,-228.25,-837.75,1273.0,36.0,-6.0,7
-96.5,792.75,199.25,249.75,-1061.25,1024.5,-116.75,25.0,7
-29.0,561.5,73.0,598.25,-1252.5,791.25,-237.0,54.25,7
-186.0,261.0,-43.25,738.5,-1194.75,488.25,-416.25,160.0,7
-450.5,122.5,-94.75,862.75,-958.5,231.0,-658.25,187.25,7
-554.0,127.75,-174.25,837.5,-732.25,67.25,-756.75,174.25,7
-603.0,56.75,-229.0,859.5,-561.0,-26.0,-769.5,161.75,7
-558.25,173.25,-341.25,839.25,-481.25,-68.75,-863.25,142.25,7
-478.5,70.5,-566.25,816.5,-539.75,-150.25,-956.75,262.0,7
-357.5,76.25,-742.25,727.0,-613.25,-174.5,-851.25,439.75,7
-167.75,-50.25,-819.5,626.0,-716.0,-98.5,-432.25,764.25,7
-19.0,-179.25,-818.75,561.5,-859.0,39.0,-46.25,1101.5,7
58.0,-255.0,-874.5,429.5,-1070.0,38.75,87.0,1137.75,7
147.5,-190.5,-910.25,241.0,-1219.75,-78.75,-166.0,1210.25,7
193.25,-132.0,-972.5,91.0,-1258.75,-249.0,-682.75,1300.0,7
242.5,-160.5,-1032.75,75.75,-1311.0,-551.75,-694.25,1330.75,7
114.5,-131.25,-1049.0,104.25,-1331.25,-756.5,-334.5,1284.75,7
49.5,-141.75,-1058.75,118.0,-1246.25,-962.75,-136.25,1238.0,7
251.25,-45.0,-1077.25,53.0,-1085.25,-1052.75,-138.5,1214.5,7
278.25,-17.0,-1073.0,32.75,-758.25,-969.5,-262.5,1136.5,7
-33.5,-48.75,-1059.0,66.5,-354.5,-808.75,-386.0,1066.0,7
-401.75,-140.25,-837.75,75.75,61.0,-442.5,-383.5,1001.0,7
-773.5,-168.0,2.75,139.75,588.5,-131.75,-318.0,970.5,7
-1017.0,-133.0,1015.75,243.0,648.75,-197.75,0.25,1019.0,7
-1264.25,-129.0,1039.25,319.0,549.75,-141.75,116.75,1141.25,7
-1172.5,-74.25,1046.75,318.75,476.75,-80.5,32.75,1182.25,7
-60.0,0.5,1051.75,302.75,449.25,-201.75,103.25,1181.5,7
450.25,82.5,1056.5,374.0,399.75,-327.75,78.75,611.25,7
432.0,173.75,1048.75,541.25,363.5,-100.0,173.25,-28.25,7
415.5,292.5,1031.75,707.75,357.5,142.75,134.0,-455.75,7
399.0,363.0,1013.0,766.25,342.5,215.75,28.0,-651.75,7
445.25,407.5,1005.0,769.75,453.75,316.5,-113.25,-586.0,7
642.5,394.5,994.75,767.0,155.75,314.75,-228.25,-628.25,7
978.0,381.0,982.25,738.5,-186.75,293.5,-295.0,-737.25,7
1231.5,452.75,978.0,654.75,-549.5,228.25,-291.0,-968.5,7
1065.75,539.5,859.5,601.75,-605.75,435.0,-44.75,-998.25,7
453.25,529.5,-19.5,588.75,-474.0,536.0,125.0,-806.0,7
95.75,577.75,-1021.5,495.75,-306.75,531.0,239.75,-607.25,7
-392.5,960.0,-1575.25,353.0,-234.75,555.5,125.0,-504.25,7
-810.0,965.0,-1289.5,247.5,-243.25,537.25,100.0,-541.5,7
-956.75,697.75,-916.25,145.75,-116.0,725.25,302.0,-599.25,7
-811.25,235.5,-834.25,-44.25,-152.75,753.0,290.5,-728.25,7
-788.0,-246.75,-754.75,-139.75,-123.0,799.25,222.0,-878.0,7
-862.0,-1034.25,-739.5,-206.5,-61.75,815.25,304.5,-1041.0,7
-860.75,-1033.5,-702.5,-301.0,-75.25,769.5,479.5,-1367.0,7
-981.25,-1034.0,-724.0,-379.25,11.75,746.25,511.25,-1619.0,7
-592.75,618.75,-637.75,-426.5,77.25,735.0,340.5,-1778.25,7
-399.75,393.0,-685.5,-409.75,238.5,792.75,93.5,-1402.25,7
-704.0,-411.0,-1032.25,-592.0,514.25,841.0,186.25,-1012.5,7
-801.0,-283.0,-1252.75,-977.25,994.75,877.75,659.75,-1134.75,7
-655.25,434.0,-1475.25,-1375.25,1272.25,820.75,1089.75,-1557.0,7
-452.0,1141.25,-1075.0,-1047.25,919.0,458.5,1027.25,-1708.5,7
-131.5,1367.0,-600.75,-752.0,1091.25,320.0,1008.0,-1628.0,7
325.0,1313.5,-550.5,-542.0,1585.5,399.5,976.0,-1453.25,7
446.75,1623.0,-175.5,54.5,1662.5,433.25,1053.25,-1174.0,7
371.0,1582.5,182.75,335.75,1749.75,483.0,1335.5,-909.5,7
284.75,1547.25,104.0,185.25,1669.0,97.75,1344.25,-720.25,7
191.75,1509.75,-25.0,-301.0,1331.0,-766.5,1035.75,-533.0,7
190.75,1022.25,-466.0,-1065.5,1052.0,-1363.75,802.5,-431.25,7
-12.75,309.25,-531.0,-816.75,865.5,-1302.0,651.25,-101.75,7
-115.25,-590.25,-53.25,-783.5,702.0,-1131.75,572.0,307.25,7
-213.75,-877.75,440.0,268.0,644.5,-1047.0,332.75,461.5,7
-505.75,-1087.5,256.25,1201.0,1117.5,-970.5,75.0,517.75,7
-646.0,-1121.75,-28.5,119.0,1514.75,-877.0,-51.75,760.25,7
-837.25,-1133.25,-4.75,285.75,1789.75,-819.0,-94.0,1036.25,7
-832.0,-1087.5,86.75,853.0,1850.75,-772.5,-26.0,1310.25,7
-677.5,-1072.0,213.0,1478.0,1880.75,-743.75,35.25,1536.0,7
-612.75,-423.5,80.75,1144.0,1931.25,-618.25,223.25,1750.75,7
-542.25,-7.25,-106.75,339.25,1663.25,-557.5,387.25,1783.75,7
-593.0,215.0,-244.5,417.25,1414.25,-471.0,149.75,1781.25,7
-515.75,780.5,-312.25,457.75,1396.0,386.5,-235.25,1774.0,7
-252.0,597.0,-246.75,609.5,1484.5,1029.25,-518.0,1677.5,7
-31.25,54.0,-161.0,826.75,1348.5,1222.75,-318.0,1472.25,7
544.75,-266.0,-272.75,1122.75,836.5,1074.0,-90.25,1249.0,7
893.0,159.25,-375.5,1025.5,461.5,796.5,-400.25,1041.75,7
272.25,246.5,-443.0,645.5,504.0,706.5,-519.75,770.0,7
-186.0,-328.25,-484.25,66.0,158.25,525.75,-659.75,518.5,7
-208.25,-1009.5,-412.75,-337.5,-568.0,-33.5,-763.25,406.25,7
-170.75,-723.0,-288.0,-508.5,-882.25,-191.5,-334.75,282.25,7
-435.0,-340.75,-177.75,-611.25,-868.5,-529.0,-178.75,14.25,7
-416.5,-268.75,-148.75,-609.0,-781.0,-829.75,-407.25,-129.5,7
-500.75,-50.0,-143.5,-809.25,-904.5,-1063.0,-361.0,-375.0,7
-246.0,295.75,-128.5,-770.75,-989.75,-1228.25,-594.0,-391.25,7
-267.75,713.75,13.75,-457.75,-1082.75,-1036.75,-853.0,-249.75,7
-151.5,804.75,137.0,314.75,-1005.0,-728.5,-662.25,-33.0,7
-65.0,518.5,153.75,604.75,-840.5,-494.0,-118.75,28.25,7
-163.0,618.75,136.0,409.25,-1080.0,-346.25,51.75,4.25,7
-345.5,356.25,182.25,472.75,-1102.0,-59.75,-79.5,15.75,7
-447.25,-476.75,239.25,556.75,-1116.0,225.0,-349.5,-105.25,7
-237.25,-64.5,194.0,-417.25,-1316.75,472.5,-567.5,-87.0,7
-268.5,375.75,449.0,-728.0,-1334.25,662.25,-425.75,-277.75,7
-226.75,-757.75,802.25,454.5,-1224.75,880.5,-435.0,-432.75,7
2.0,-907.0,671.0,118.5,-985.75,911.75,-627.5,-486.25,7
274.25,127.0,546.0,21.0,-783.75,886.75,-668.25,-564.75,7
350.0,804.0,551.75,518.75,-625.25,767.75,-117.75,-565.0,7
292.0,120.75,401.0,134.75,-370.75,550.75,469.5,-562.75,7
42.5,-776.5,325.0,296.5,97.0,532.25,600.5,-616.25,7
-117.25,-769.5,267.0,331.75,224.0,666.0,449.0,-740.5,7
-135.0,-771.75,230.75,731.25,141.75,502.25,287.25,-712.5,7
-193.25,-787.0,145.75,687.5,345.75,466.25,300.25,-718.0,7
-99.5,-749.25,67.75,607.0,426.5,757.75,324.0,-639.75,7
-34.5,-316.0,1.0,705.5,385.5,772.75,298.5,-420.0,7
170.5,-203.25,-2.5,91.75,344.25,591.75,419.25,-455.0,7
348.5,-279.25,42.5,-532.5,216.5,574.25,681.0,-572.0,7
525.0,138.25,135.25,-531.5,-146.5,348.75,562.0,-749.5,7
711.0,765.25,255.75,-338.75,-790.25,-43.0,490.0,-872.75,7
848.0,955.25,258.0,-371.5,-1431.5,-372.0,334.25,-788.25,7
867.0,471.5,242.0,-4.5,-1639.0,-626.25,-38.5,-642.25,7
673.25,102.5,124.0,-277.75,-1677.25,-802.75,-424.0,-488.0,7
478.0,44.75,6.25,-669.5,-1690.75,-462.25,-640.25,-578.5,7
225.0,120.0,34.75,-82.5,-1754.75,389.5,-620.5,-763.0,7
-51.0,106.25,78.5,852.25,-1685.25,911.5,-907.0,-645.5,7
-313.5,22.5,39.0,513.0,-1371.25,877.75,-1122.25,-523.25,7
-249.0,-231.0,73.5,-155.5,-1130.5,740.25,-1068.75,-390.0,7
31.75,-182.5,203.5,706.5,-876.25,535.75,-554.25,-168.25,7
277.25,198.25,170.0,337.25,-705.5,317.5,-485.0,31.5,7
293.5,286.0,158.5,-516.5,-564.75,342.75,-790.0,231.75,7
233.5,391.75,213.75,-372.5,-575.5,587.25,-371.5,285.0,7
322.75,598.75,-38.75,-1315.75,-422.25,683.5,-94.0,382.5,7
426.0,613.0,-227.5,-1671.5,63.75,377.0,348.5,455.5,7
533.0,1027.5,-228.25,-1647.0,425.75,-15.25,458.0,505.75,7
409.25,972.0,-99.5,-1551.25,994.25,-253.5,-148.25,607.5,7
228.0,286.5,40.75,-920.25,807.25,-655.75,-108.75,635.75,7
301.0,797.5,26.5,-186.75,647.25,-819.75,130.25,801.0,7
64.25,1023.25,70.75,177.75,1413.0,-730.25,233.75,919.75,7
-73.75,715.0,60.25,327.5,1260.5,-917.0,250.75,796.75,7
142.25,169.25,-201.5,530.0,1463.25,-890.5,-163.75,1045.75,7
-358.0,-1083.25,-527.0,349.0,1669.0,-1052.0,-61.0,919.5,7
-242.25,-810.0,-318.75,-1355.5,490.0,-1671.25,512.0,128.5,7
291.25,-286.25,323.5,-945.25,695.25,-2149.25,839.75,-210.0,7
36.5,2.0,677.75,-132.25,998.75,-2062.0,1072.5,-235.5,7
-637.5,272.75,666.75,-730.25,1180.0,-1525.0,968.5,-348.5,7
-899.25,-122.0,732.75,-629.5,1694.75,-1291.25,601.5,-617.25,7
-393.0,-559.0,673.25,88.0,1892.25,-752.0,-283.5,-202.5,7
-627.5,-1497.75,-228.25,1527.75,1980.75,-8.75,-827.75,601.25,7
-1113.75,-1598.75,-514.75,1081.5,1263.5,-343.75,-408.25,-105.75,7
52.25,-93.25,26.0,42.75,353.75,-957.75,-14.75,-840.0,7
625.75,189.25,-0.5,1301.75,1095.75,-127.5,-778.75,448.25,7
-377.25,-296.25,-587.75,1602.0,984.25,166.25,-907.0,561.0,7
-213.0,-250.25,-569.75,1299.5,149.0,-333.25,-587.5,405.25,7
176.75,3.5,-451.75,456.5,-398.75,-414.0,-149.25,205.75,7
478.25,619.0,-124.25,-463.5,-623.75,-1000.25,657.5,-579.25,7
1035.5,1336.75,310.75,-419.0,-473.5,-856.75,595.0,-261.0,7
-348.25,830.25,76.25,-78.0,75.75,-297.5,575.75,-10.5,7
293.5,591.0,-413.5,-79.75,781.5,288.0,495.75,329.5,7
462.5,103.5,-1019.5,873.5,932.5,1412.25,-259.0,1385.0,7
-701.25,-83.5,-1047.25,725.0,499.25,1584.25,-627.0,1158.75,7
-748.75,-295.5,-657.75,467.25,332.5,1411.5,-582.5,1125.75,7
-614.75,-512.0,-550.75,560.5,-714.0,1362.5,-594.0,1167.5,7
-769.0,-113.5,-293.0,95.75,-1074.5,662.25,41.25,803.0,7
-328.0,178.5,-427.25,-114.75,-450.25,308.5,288.0,732.0,7
-576.5,83.0,-329.25,197.5,869.75,-87.5,392.5,771.25,7
-704.25,-334.0,-81.25,609.5,920.5,-262.75,443.75,636.25,7
-715.25,-262.0,-27.0,269.0,730.0,33.75,730.0,364.0,7
-369.5,-250.5,93.25,111.5,278.25,161.0,560.0,190.25,7
-241.5,-190.75,57.0,-117.25,-489.75,227.0,357.75,33.75,7
-180.75,-340.25,149.5,-41.25,171.0,395.0,268.25,-65.75,7
-213.5,-745.5,179.25,119.5,69.5,484.0,163.25,-88.75,7
-181.25,-772.25,344.5,-90.25,-167.0,587.5,223.5,-185.25,7
-69.25,-812.25,543.0,-41.25,35.25,668.25,184.75,-218.5,7
-39.75,-598.75,423.25,-143.0,206.5,683.75,252.5,-319.5,7
129.0,-473.0,352.25,-131.0,196.0,648.5,293.0,-388.0,7
234.75,-188.75,736.25,-294.75,-77.5,509.0,456.0,-381.5,7
405.0,108.0,706.75,-293.25,-213.0,327.5,621.25,-378.25,7
412.0,304.75,359.5,-161.5,-533.5,105.75,631.0,-394.75,7
401.75,390.5,118.25,-70.75,-991.0,-114.75,448.75,-395.0,7
373.25,434.25,-225.0,-17.0,-1055.25,-105.25,345.0,-297.5,7
285.5,422.75,-317.25,77.5,-833.75,6.75,308.75,-316.0,7
216.5,358.0,-387.25,-40.75,-809.75,128.75,110.25,-332.75,7
240.75,396.0,-562.5,-223.75,-519.25,297.5,-203.25,-328.5,7
231.25,331.5,-470.0,-234.0,-275.5,416.0,-198.25,-339.5,7
19.25,202.5,293.0,-242.0,-414.0,525.0,136.0,-291.5,7
-146.0,121.5,882.0,-366.75,-504.75,529.75,166.75,-283.5,7
-135.75,39.25,947.0,-436.25,-439.0,551.25,-283.0,-261.5,7
-226.25,-153.25,639.0,-324.25,-493.0,587.75,-561.25,-264.75,7
-337.0,-153.75,-66.25,-362.75,-745.25,550.75,-293.5,-155.0,7
-306.75,-107.25,-615.25,-184.5,-737.25,490.25,-173.0,-65.75,7
-270.25,-53.0,-851.25,1.0,-711.25,290.5,-166.5,-160.5,7
-58.5,3.0,-786.25,81.0,-797.25,34.75,46.5,-175.0,7
350.5,273.0,-503.25,-168.25,-1009.5,-376.0,794.25,-238.75,7
849.25,894.75,179.25,-283.0,-594.25,-702.0,1101.75,-418.25,7
448.25,832.75,455.5,-226.0,395.75,-686.0,783.0,-581.5,7
-41.25,629.0,-310.75,-389.75,1506.0,-399.5,274.25,-458.75,7
11.0,688.25,-744.75,-476.0,2109.75,-62.75,-198.75,-387.0,7
-67.75,490.5,-795.75,-445.75,2697.5,268.5,-183.5,-435.5,7
-19.25,492.5,-487.75,-524.75,3044.75,398.5,-272.25,-370.25,7
34.5,351.5,-488.75,-547.0,2813.75,687.0,-665.25,-351.25,7
244.25,194.75,-726.0,-634.0,2865.25,680.0,-897.75,-214.75,7
126.0,-352.5,-686.25,-19.0,2480.5,808.75,-1309.25,560.75,7
-682.75,-967.25,-534.0,344.5,1958.75,728.75,-1152.75,1007.5,7
-535.0,-781.0,-230.75,589.5,1893.25,408.25,-904.5,662.0,7
-306.0,-596.75,138.0,777.25,844.75,277.25,-513.25,586.5,7
-463.25,-649.5,400.25,731.5,523.75,144.75,-122.75,508.25,7
-428.0,-434.5,715.5,587.5,323.5,175.25,-95.75,126.5,7
-169.75,-346.25,889.5,548.5,4.5,63.25,-305.5,-89.25,7
-114.5,-99.25,807.75,437.25,150.25,-187.5,-261.5,-358.5,7
21.25,-16.5,479.25,251.0,53.75,-194.0,-312.25,-437.5,7
-165.75,119.0,-360.0,-57.75,-57.0,-167.75,-588.25,-565.75,7
-261.75,201.5,-785.0,-240.75,-215.75,-60.25,-742.25,-552.75,7
-35.5,187.75,-928.25,-305.5,-85.5,-125.75,-757.5,-465.0,7
259.5,199.0,-968.75,-433.25,233.75,-312.5,-790.0,-542.75,7
333.0,190.0,-1139.75,-456.0,546.25,-566.5,-724.5,-533.5,7
507.75,238.75,-1033.75,-405.75,1009.25,-731.0,-499.5,-364.75,7
451.0,195.5,-418.25,-452.0,1486.25,-857.0,-127.0,-102.5,7
233.25,218.0,288.5,-375.0,1755.75,-1069.75,244.0,114.25,7
221.25,159.75,642.25,-197.25,1777.0,-1279.0,722.0,311.25,7
383.25,199.0,648.5,-197.75,1853.5,-1461.0,1132.25,318.5,7
601.5,258.0,701.0,-303.5,1840.0,-1567.25,977.25,296.0,7
848.0,277.5,814.5,-593.0,1598.75,-1651.25,1026.0,293.75,7
1106.5,374.25,1024.0,-658.0,839.5,-1516.25,1050.5,101.0,7
1305.75,548.25,1076.0,-563.75,-416.75,-1000.75,997.75,82.25,7
1273.75,553.0,1341.5,-341.5,-576.25,-623.25,959.5,69.75,7
1400.75,265.0,1245.25,-50.75,-49.25,-564.75,709.25,-106.25,7
1325.5,171.25,749.0,69.5,294.25,-278.0,713.0,-172.0,7
1006.25,151.75,131.0,175.0,208.75,103.5,774.5,-320.5,7
720.0,309.25,-283.25,160.75,-618.25,346.75,1160.5,-550.0,7
325.75,467.0,308.75,112.75,-1687.25,304.75,1433.25,-566.75,7
218.5,450.25,514.75,102.5,-2401.75,192.5,1340.25,-415.75,7
357.75,500.75,911.75,140.75,-2838.75,284.0,922.75,-383.5,7
-411.25,400.0,1550.5,151.0,-2835.0,436.25,379.75,-268.0,7
-1645.75,-203.25,1576.5,6.25,-2273.0,642.0,-153.75,-48.25,7
-1934.0,-370.0,1462.75,-189.25,-1159.5,733.5,-527.75,-6.25,7
-2161.0,-100.5,1139.0,-270.75,148.75,777.0,-538.75,54.25,7
-2420.0,-51.75,839.5,-337.25,-54.75,726.0,-298.25,-25.75,7
-2587.25,37.25,516.5,-354.25,-1026.25,726.0,31.75,-103.75,7
-2739.75,106.0,462.0,-387.75,-1641.25,765.25,289.0,-193.0,7
-2036.25,-44.5,567.75,-159.5,-1115.5,867.25,603.5,-241.0,7
-1241.0,-50.25,410.25,134.75,-1254.25,970.75,612.25,-188.5,7
200.5,-214.5,-7.0,367.25,-1783.75,916.75,421.25,-160.5,7
1076.0,-364.75,-532.5,572.25,-1708.75,1031.25,294.0,-107.5,7
1470.25,-439.75,-824.5,647.25,-1030.5,1022.25,89.0,-71.75,7
1537.25,-490.25,-1054.75,776.25,4.25,697.5,40.5,-16.5,7
1922.75,-501.75,-1308.75,822.5,306.5,418.75,64.75,59.25,7
1939.25,-460.25,-2013.5,835.75,-304.75,332.5,229.5,108.0,7
1765.25,-285.5,-2172.75,787.25,-507.25,407.5,449.25,107.25,7
1434.25,-307.25,-1677.25,710.0,-208.0,557.5,524.5,155.25,7
954.25,-546.25,-873.5,538.5,-720.25,580.0,548.75,210.75,7
503.25,-569.5,-80.75,290.25,-396.25,529.75,440.75,202.0,7
-15.0,-273.75,527.0,370.75,-63.25,461.25,123.0,144.0,7
-728.25,-323.5,616.25,962.25,-193.5,302.75,-197.25,17.5,7
-1049.5,-332.25,292.5,1034.25,161.0,483.0,-312.0,-21.5,7
-1000.25,-104.5,-519.75,749.25,231.0,801.25,-207.25,-100.25,7
-822.0,43.5,-1152.5,403.5,730.5,729.25,-241.0,-77.0,7
-618.25,18.0,-1229.0,-219.5,1354.25,755.25,-479.75,270.25,7
-34.75,-62.75,-1226.25,-738.75,930.5,694.0,-378.75,537.25,7
416.75,97.0,-1083.5,-756.25,-606.0,391.5,-37.25,556.75,7
-134.25,-60.25,-700.5,21.75,-1113.0,359.25,-8.0,873.25,7
-1434.25,-529.75,-574.0,473.25,-1057.5,375.25,-36.5,1030.25,7
-2097.25,-626.75,-507.75,276.0,-1161.0,297.25,-284.5,888.25,7
-2323.75,-654.5,-555.0,156.5,-407.25,156.0,-522.5,766.5,7
-2486.0,-733.25,-454.75,208.25,-150.0,-4.0,-691.25,514.25,7
-2334.25,-546.75,-278.0,149.5,59.5,-208.25,-970.5,256.75,7
-1895.75,-418.0,-242.5,-82.25,197.0,-135.75,-643.5,280.75,7
-2039.25,-246.75,-397.25,-589.75,-499.0,-184.0,4.25,200.5,7
-1898.5,4.75,-882.25,-676.0,-953.0,-201.25,80.25,201.75,7
-1539.5,188.5,-1293.25,-344.0,-893.0,-148.0,64.25,146.5,7
-267.0,160.5,-1258.0,77.5,-586.0,-115.0,4.5,288.75,7
1669.25,-136.75,-1095.75,195.25,-799.0,-319.5,-92.25,344.25,7
2074.75,-340.75,-790.25,98.0,-1101.25,-776.0,-152.25,359.75,7
2132.75,-410.25,-419.5,163.75,-1198.0,-1048.75,-149.25,292.5,7
1724.25,-234.5,-128.5,113.0,-640.25,-880.5,-224.5,-24.75,7
1606.75,-178.5,467.25,-49.0,-28.0,-693.5,-217.5,-100.5,7
1429.0,-42.0,983.5,-219.75,188.0,-602.0,-188.75,-91.75,7
997.0,99.75,934.5,-183.5,554.5,-272.75,-283.25,-88.5,7
807.0,251.75,374.0,-122.75,739.25,-177.25,-231.5,-73.0,7
697.75,328.75,658.0,-70.5,584.75,-321.25,-203.0,22.5,7
571.75,338.5,353.25,-73.75,150.25,-376.75,-161.0,101.75,7
29.75,403.0,-416.25,-114.75,-228.0,-221.75,-50.75,127.0,7
-53.5,371.5,130.75,-39.75,-358.75,-57.25,-6.75,164.5,7
-11.5,397.0,411.25,-44.75,-352.5,32.5,-56.75,129.25,7
-497.75,359.25,868.25,33.25,-379.25,2.0,-75.0,-140.25,7
-441.75,385.0,1537.75,58.5,-576.0,-76.25,-86.25,-453.25,7
-287.75,382.5,1523.75,36.75,-865.0,-246.5,-86.0,-534.25,7
-304.25,321.25,1078.25,145.75,-705.0,-489.75,-73.25,-515.25,7
-568.75,247.5,171.0,201.25,-392.25,-588.75,-94.25,-443.5,7
-464.0,209.5,-355.75,76.0,-502.5,-562.25,-2.75,-482.0,7
-281.5,242.0,-1557.75,-51.25,-543.5,-369.25,96.5,-542.0,7
-538.25,273.75,-1358.0,-177.25,-135.75,-220.5,159.25,-409.0,7
-801.0,340.75,44.0,-406.0,39.25,-148.25,99.5,-197.25,7
255.0,324.0,339.5,-635.25,-160.25,-114.75,-146.25,178.5,7
1905.75,337.0,135.25,-836.0,72.25,-207.0,-509.5,293.25,7
2259.75,335.75,531.25,-952.25,544.25,-149.25,-880.75,16.5,7
2050.75,306.75,780.25,-1023.0,1044.25,-20.25,-1035.75,114.25,7
2585.0,265.0,474.75,-913.0,1710.0,61.25,-934.75,390.25,7
1384.0,136.75,549.75,-642.25,2199.0,99.0,-705.25,474.5,7
465.75,-69.75,-272.5,-424.0,1751.5,9.75,-324.5,457.75,7
-423.0,-172.25,-572.75,-298.5,1107.25,109.5,-132.25,384.75,7
-1566.25,-41.5,-630.0,-230.75,996.75,422.0,-100.75,399.5,7
-2357.75,93.75,-480.75,-112.0,1180.0,475.0,-16.0,444.5,7
-2122.25,180.75,-841.25,-19.75,1468.75,445.75,-84.5,482.75,7
-1483.0,243.25,-579.25,41.0,1426.25,547.0,-42.5,555.25,7
-1532.75,256.5,216.25,92.25,1552.5,524.75,79.25,704.75,7
-1620.5,168.25,419.5,71.5,1446.0,431.25,128.0,906.25,7
-847.5,156.25,810.25,163.5,1642.75,361.0,278.75,922.75,7
343.5,148.5,1211.0,262.75,2076.5,327.25,612.25,933.25,7
1279.25,96.75,1427.25,140.25,2092.25,300.5,1004.5,486.0,7
1772.75,173.25,1436.25,-62.5,1582.5,423.5,1119.0,-221.0,7
1989.5,215.0,1135.25,-224.0,1267.25,502.75,1247.5,-582.25,7
2306.25,342.25,1002.5,-296.0,772.5,316.0,1525.25,-1062.75,7
2738.25,517.5,1387.0,-273.0,134.0,-91.0,1775.0,-1353.0,7
2660.0,452.75,1239.75,-196.5,407.75,-115.25,1541.25,-1304.0,7
2270.75,-54.5,20.5,514.25,1814.75,694.0,660.75,-945.0,7
505.75,-963.25,-1005.25,1253.0,2349.5,1205.5,100.75,-555.0,7
-529.25,-910.75,-1197.75,1176.25,2195.25,916.5,-121.5,-721.75,7
-686.0,-609.5,-1385.0,787.25,2280.75,599.75,-784.25,-882.75,7
-986.0,-708.75,-1437.25,756.75,2660.25,547.75,-1063.25,-809.5,7
-1222.25,-350.5,-891.75,201.25,2646.25,215.25,-1031.5,-939.0,7
-417.25,-266.25,-161.0,103.0,1459.0,90.75,-1765.5,-575.5,7
227.25,-164.75,220.0,-151.0,-1007.0,-27.5,-2059.75,-440.5,7
32.5,-124.0,634.75,-228.25,-1152.25,91.75,-1705.75,-254.75,7
-1490.0,-184.25,906.25,-382.5,-1435.0,175.5,-811.75,-198.0,7
-1646.0,26.5,1119.75,-529.0,-1742.0,-6.25,-485.0,-116.5,7
-1474.25,31.25,657.5,-662.25,-1161.5,-306.5,-599.5,-27.0,7
-612.25,368.0,-53.25,-881.25,-891.25,-913.25,-260.5,-270.25,7
402.75,732.25,-888.25,-811.0,-658.75,-1365.5,-96.0,-297.25,7
1009.25,722.0,-990.75,-719.25,-694.75,-1438.5,300.0,-237.75,7
1700.75,610.25,-660.0,-695.25,-1343.75,-1151.25,1057.5,-413.75,7
2205.75,641.5,-1263.5,-682.0,-1613.0,-970.0,1633.5,-513.5,7
2185.5,573.0,-1046.75,-592.75,-1562.0,-880.5,1442.5,-200.5,7
1386.75,492.5,-1168.5,-575.0,-1718.25,-894.25,831.25,32.25,7
622.0,436.5,-1262.0,-442.75,-1456.25,-940.75,127.0,297.0,7
-348.0,287.25,-154.5,-361.25,-1132.25,-795.0,-303.5,468.5,7
-1384.75,246.5,308.0,-271.25,-192.5,-617.5,-449.5,481.5,7
-1913.75,30.5,-218.5,-151.75,213.75,-514.75,-502.0,542.75,7
-1097.75,-74.75,443.25,-45.25,51.5,-335.75,-592.25,572.0,7
-842.75,-213.5,828.5,114.25,177.5,-292.25,-711.75,604.0,7
-1056.0,-221.0,424.0,275.5,-53.25,-200.75,-925.5,550.5,7
-1070.25,-340.0,245.0,746.25,44.0,349.75,-1060.5,840.75,7
-409.75,-732.25,58.25,1182.75,236.0,934.0,-1111.25,1327.0,7
409.25,-865.5,41.75,1113.5,1101.0,846.0,-719.5,1028.5,7
802.0,-753.0,-523.5,921.5,1330.25,530.5,-644.0,623.25,7
1647.0,-708.25,-470.5,778.5,1378.75,434.5,-681.5,526.0,7
1774.75,-700.0,-435.75,647.25,665.5,104.5,-479.5,-67.5,7
2185.5,-546.75,-285.5,589.0,358.0,-169.0,-563.25,-455.25,7
1239.5,-616.0,1082.5,554.0,193.0,-343.75,-514.25,-543.0,7
-299.75,-453.5,1525.5,419.5,35.25,-594.5,-442.5,-100.75,7
-1192.0,-503.5,1157.75,481.25,146.0,-687.75,-316.0,237.75,7
-1470.5,-493.25,679.5,599.75,261.5,-734.5,-203.0,-175.0,7
-1657.0,-427.75,107.25,633.75,386.75,-797.75,-148.5,-176.75,7
-1791.0,-239.0,-201.25,452.75,376.0,-1006.25,-41.75,-29.5,7
-599.0,-160.0,-626.25,401.25,400.25,-556.75,-115.25,352.75,7
-627.0,-177.0,-541.75,343.0,329.75,-109.5,-93.0,865.25,7
-568.0,-110.5,-163.0,114.25,274.75,-170.25,-72.5,1144.5,7
-2392.25,-148.0,-25.5,-84.0,300.75,-254.75,-89.75,1131.0,7
-1753.25,-72.0,-93.25,-231.75,237.75,-373.25,-95.5,389.25,7
-1349.25,-33.25,-242.0,-303.75,276.25,-363.0,-65.25,-153.0,7
-1025.25,-21.0,-217.0,-321.75,291.75,-417.25,2.0,-274.0,7
-1120.75,19.0,-337.75,-388.0,295.75,-471.25,190.75,-13.0,7
-1149.5,95.5,-410.0,-443.25,337.5,-410.75,416.75,566.75,7
-269.0,228.5,61.0,-434.75,408.0,-71.5,491.5,467.75,7
952.0,287.5,137.25,-356.0,479.5,292.75,503.0,115.5,7
1441.0,233.25,-214.25,-285.75,527.75,426.5,624.5,-25.25,7
856.75,121.25,317.75,-242.75,622.75,432.25,775.25,-105.75,7
1216.0,10.25,1259.75,-139.75,634.75,469.75,870.5,-31.5,7
1587.5,29.75,628.0,-89.5,705.25,469.75,845.75,157.75,7
1240.75,132.5,131.0,-128.25,836.75,160.75,625.25,407.5,7
1094.75,222.75,-359.25,-180.25,764.25,140.0,786.0,448.0,7
631.0,271.0,-616.0,-161.5,98.75,392.0,1062.25,228.0,7
416.0,281.0,-737.5,-75.0,-500.25,741.0,791.0,-169.75,7
86.25,361.25,-851.0,-22.5,-422.25,1131.0,21.25,-321.25,7
-357.75,423.5,-250.0,-11.25,-12.5,1126.0,-749.5,-311.25,7
-212.0,445.75,-65.0,-139.75,-58.0,1034.0,-792.0,-358.0,7
42.5,351.75,139.25,-292.5,68.75,1163.75,-749.25,-291.0,7
235.5,88.25,-62.0,-171.5,140.5,1223.5,-640.5,-282.0,7
41.0,-172.25,-186.75,35.25,558.0,1222.25,-568.0,-269.0,7
-176.5,-188.75,-182.25,165.75,637.0,1145.0,-286.75,-275.0,7
-227.0,-52.75,-295.75,241.25,626.25,684.0,289.75,-270.5,7
-422.75,8.25,-109.75,235.0,150.0,289.5,983.75,-143.0,7
-559.25,69.75,-35.5,139.75,-723.5,-100.5,1007.75,12.75,7
-404.5,60.75,39.0,-15.25,-1074.75,-548.75,1055.0,28.5,7
-61.75,114.25,330.0,-178.25,-1138.0,-760.5,931.0,-80.75,7
362.5,150.25,864.25,-314.0,-888.75,-971.75,834.0,-217.5,7
1210.75,114.75,991.5,-427.75,-652.75,-1048.5,716.0,-372.75,7
990.75,63.0,852.5,-543.0,-638.5,-918.0,492.0,-471.25,7
1044.75,-52.75,544.0,-445.0,-891.75,-738.0,383.0,-431.25,7
-194.0,-194.75,99.0,-236.75,-979.0,-336.0,557.0,-418.5,7
-778.75,-292.75,-145.25,-2.75,-1056.5,61.25,706.25,-424.0,7
-576.25,-166.75,-226.75,245.25,-1350.25,205.75,994.5,-285.5,7
-505.25,-149.25,-42.5,275.25,-1346.25,102.0,1243.0,-201.5,7
-613.25,-185.5,70.75,273.5,-1201.25,-38.25,1132.25,-246.5,7
-339.25,-50.25,246.25,200.0,-1236.0,154.25,837.0,-284.75,7
-286.0,108.75,397.0,59.25,-1165.5,100.0,654.25,-291.5,7
-741.25,409.75,284.5,-25.0,-1144.0,-128.75,658.75,-294.5,7
-857.5,751.75,78.25,-119.25,-1249.5,-261.5,558.75,-282.0,7
-592.5,786.25,-165.5,-159.75,-1265.5,-565.0,549.5,-232.25,7
-151.0,581.0,-357.75,-384.75,-1207.0,-716.25,699.0,-184.5,7
71.0,485.75,-160.75,-609.75,-940.75,-656.5,803.0,-1.75,7
437.0,247.25,810.5,-848.25,-572.75,-435.5,749.5,260.0,7
673.75,-90.5,1456.0,-1077.0,170.0,226.0,696.5,234.25,7
1016.0,-320.25,1421.75,-923.0,879.0,707.25,471.5,47.5,7
1035.25,-464.5,1334.0,-494.25,1285.0,510.0,202.75,47.5,7
796.75,-620.5,-916.25,113.75,1603.25,298.25,141.75,38.25,7
719.0,-703.5,-1129.0,626.0,1367.5,21.25,146.5,-4.0,7
670.25,-654.5,-1180.5,1066.5,899.25,-208.75,292.75,17.75,7
319.25,-558.75,-1145.0,1152.25,1355.75,-110.5,263.25,11.0,7
78.75,-202.5,-1074.75,887.0,1428.0,86.25,-14.75,47.5,7
50.75,194.25,-754.75,902.25,770.5,57.5,-244.5,142.25,7
-122.0,618.25,-292.5,476.5,540.75,-132.5,-663.75,256.0,7
-214.0,1041.75,90.0,-560.0,273.0,-142.5,-1180.25,303.25,7
-293.75,1109.5,417.5,-1258.75,830.0,187.25,-1352.5,235.25,7
-205.25,860.75,223.0,-1141.25,1115.25,734.5,-1422.75,167.0,7
28.25,622.25,41.75,-1145.0,1116.75,884.5,-1508.0,103.75,7
284.5,392.0,280.75,-953.0,1304.75,506.5,-1592.5,75.75,7
389.75,-187.5,255.5,-473.25,1431.25,172.0,-1402.0,105.75,7
351.0,-633.0,93.25,-155.75,1346.25,518.75,-729.75,149.75,7
676.5,-688.75,222.75,-51.75,861.5,692.0,-106.0,275.0,7
1050.75,-560.5,158.5,-250.25,749.0,710.5,488.0,355.25,7
732.75,-343.0,81.25,-197.5,610.75,1212.0,1051.25,249.25,7
134.0,-275.75,-160.0,-225.0,548.75,1355.5,1402.25,68.0,7
-250.25,-84.25,-53.75,-298.75,406.75,1418.75,980.5,-277.25,7
-363.5,224.75,15.0,14.25,397.0,1157.5,-62.5,-927.75,7
-188.0,248.75,-43.5,451.5,342.75,753.0,-1082.5,-1166.25,7
-103.0,160.5,45.0,867.5,18.75,622.75,-1705.25,-1174.0,7
-84.0,207.75,367.0,905.0,-212.0,404.0,-1675.0,-1136.5,7
126.25,31.5,889.75,687.25,-421.75,347.25,-1122.0,-643.0,7
345.5,-81.25,948.75,465.25,-733.5,215.0,-192.75,208.0,7
437.5,9.75,394.0,310.5,-1048.75,24.0,449.75,390.5,7
987.5,173.0,-312.75,532.0,-1151.25,-200.25,558.75,-20.25,7
1194.25,400.5,-544.5,391.0,31.25,-297.25,528.0,-245.0,7
700.75,767.0,-422.0,-254.0,914.0,-190.25,607.75,-913.5,7
-90.5,1162.75,-21.25,-773.0,1294.5,-70.25,680.25,-975.75,7
-672.0,1177.75,549.0,-700.25,1772.75,25.75,604.25,-229.75,7
-798.75,1038.25,472.75,273.5,1964.5,61.25,577.5,412.25,7
-844.25,860.25,-181.5,780.75,2205.75,66.25,480.5,1140.25,7
-989.75,514.5,-451.0,919.25,1962.0,79.5,57.5,1146.5,7
-1140.0,-41.5,-533.5,1097.0,416.0,173.75,-543.75,1132.75,7
-1206.25,-654.25,-302.25,716.5,341.75,102.0,-775.75,341.25,7
-1048.0,-1289.0,206.5,-714.5,306.0,-192.5,-654.0,401.75,7
-984.0,-1825.25,808.25,-579.5,251.5,-602.25,-604.0,1028.0,7
-743.0,-1883.0,1101.25,-407.25,100.5,-817.0,-488.5,1185.25,7
-326.25,-1612.0,1267.5,-262.5,770.75,-851.75,-428.25,895.75,7
-113.75,-1247.0,859.5,-285.25,1696.5,-729.25,-379.25,800.5,7
-19.0,-887.5,-386.0,-377.5,1782.0,-533.75,-218.0,632.5,7
18.25,-675.0,-960.25,1297.75,1067.0,-472.75,153.0,-15.0,7
83.5,-452.75,-719.25,1701.5,743.0,-483.75,430.75,470.0,7
167.0,-336.0,-745.25,1627.75,628.75,-357.5,292.25,883.25,7
153.5,-225.0,-790.5,1330.75,521.0,-304.25,403.5,15.5,7
29.5,94.0,-481.25,1056.25,432.75,-524.5,811.25,-409.5,7
-20.0,515.0,-36.75,418.0,303.0,-628.75,1122.75,-967.25,7
18.5,816.75,-24.75,132.25,-160.75,-679.5,1157.0,-1027.25,7
-21.25,462.75,-183.25,466.75,-326.75,-801.5,1003.25,-653.5,7
-72.75,-454.75,-224.5,663.5,27.75,-760.25,762.75,-172.5,7
-35.5,-981.5,-74.0,775.25,-130.75,-849.5,195.25,393.75,7
171.5,-579.25,42.25,911.75,-705.0,-761.0,-101.0,-67.0,7
375.25,447.0,-190.75,987.25,-802.75,-448.75,-58.75,-287.5,7
500.0,418.25,-306.0,696.25,-987.25,-139.5,23.0,-340.25,7
613.5,266.0,-372.75,455.5,-1169.5,48.5,320.0,2.75,7
560.25,130.75,-418.5,300.75,-1306.75,151.25,555.0,539.75,7
381.5,-822.5,-365.0,-54.5,-1272.0,213.75,515.75,662.75,7
132.75,-852.75,-217.0,-119.5,-1018.0,400.75,501.5,1505.25,7
-13.75,-860.5,31.25,322.0,-1308.0,613.0,479.0,1444.75,7
46.0,-850.5,226.25,667.75,-1523.25,634.5,415.0,-320.25,7
165.75,-555.5,416.75,331.75,-1507.0,524.25,470.75,-398.0,7
83.0,207.5,468.5,152.0,-1535.0,551.5,506.75,-220.75,7
-104.25,729.75,285.25,-408.5,-1417.75,816.25,492.25,975.25,7
-178.5,924.25,181.0,-1259.0,-1423.75,1247.5,617.0,1531.25,7
53.75,1185.75,168.75,-1607.75,-1093.0,1587.5,595.0,1533.75,7
14.75,622.75,-219.25,-821.0,-271.75,1496.75,332.5,1137.75,7
-296.5,-53.0,-456.0,-282.25,-441.75,849.0,622.75,-199.0,7
50.75,525.0,-232.25,-442.75,-1035.25,514.0,1002.5,-459.25,7
-326.75,854.0,31.25,-184.5,-996.5,513.5,1240.0,-1040.0,7
-484.75,1763.75,578.0,-910.5,-1528.0,11.5,1777.25,-1357.5,7
-295.75,2005.75,897.0,-757.75,-1320.75,191.75,1546.25,-894.75,7
-689.5,1295.25,506.75,206.5,-429.75,780.5,533.75,666.25,7
-1259.0,-152.5,64.0,1021.5,-404.5,-82.0,-14.5,2200.75,7
-1194.5,-1116.75,26.0,1069.5,-428.25,-1009.25,35.25,2228.0,7
-882.0,-1378.25,149.5,916.0,-326.75,-817.5,-80.0,1891.0,7
-834.5,-1491.5,112.0,1413.5,-236.25,-648.75,-51.5,1532.25,7
-620.0,-1292.5,-5.0,1662.0,-1184.25,-429.5,258.0,964.5,7
-310.75,-420.25,-63.75,1515.0,-1807.75,-100.75,327.25,744.75,7
-357.0,669.5,-117.0,1168.5,-2289.0,-9.5,380.0,566.75,7
23.5,1209.5,-180.5,906.5,-2348.75,-100.25,177.25,613.75,7
-47.0,1215.0,-147.25,828.25,-2401.0,-411.0,5.25,604.75,7
114.0,1430.5,-53.0,527.75,-1730.25,-860.0,-86.75,499.5,7
335.0,815.25,67.0,420.5,-714.25,-1132.0,-146.0,-183.0,7
759.0,-151.75,193.75,270.0,-647.25,-873.5,16.0,-1199.0,7
957.5,-216.0,248.5,138.0,-1179.5,-202.0,201.25,-2092.75,7
1080.75,-294.25,297.0,-1444.0,-825.75,346.25,471.75,-2243.25,7
1678.5,-260.0,368.0,-1582.75,-138.75,572.0,766.75,-2298.75,7
2141.0,368.0,669.25,-1675.75,263.5,377.75,910.0,-2156.25,7
1602.5,413.25,787.25,-1612.5,1059.25,-19.75,921.0,-2071.0,7
991.0,280.0,126.75,-1489.0,1737.25,-347.0,854.0,-917.75,7
566.0,1288.25,-238.5,-1592.25,1912.5,-679.25,760.75,-277.25,7
-292.5,1325.5,-321.25,-1704.25,1104.5,-667.75,734.75,-266.75,7
-673.75,1491.75,-535.25,-2045.0,888.25,-78.5,911.5,-379.25,7
-654.75,1451.0,-577.5,-2006.0,921.75,289.25,1096.75,-266.75,7
-512.75,651.75,-560.25,-1050.75,864.0,337.5,1189.25,-477.0,7
-600.75,-613.5,-289.0,29.5,1023.25,535.75,1101.75,-971.0,7
-892.0,-769.0,-92.25,1207.0,942.0,583.5,525.75,-1417.5,7
-1089.75,-902.5,-112.5,1895.5,1054.0,543.0,-540.0,-1608.75,7
-1366.5,-1226.75,-403.0,1875.0,1066.5,475.75,-1092.0,-1841.5,7
-1015.25,-1337.75,-461.75,1823.0,1117.0,356.75,-1110.75,-1931.5,7
-717.5,-1382.75,-259.25,1907.75,1306.75,423.5,-1104.5,-1825.75,7
-546.25,-1216.5,-236.25,2103.5,1505.75,537.5,-1154.25,-1831.5,7
-250.25,-1448.25,-79.5,1206.25,1577.75,461.75,-1335.5,-1824.25,7
-134.25,-1490.0,115.75,230.5,1554.5,57.0,-1653.75,-1789.75,7
-32.5,-601.75,435.25,238.5,1523.5,-606.5,-1796.75,-1686.5,7
-106.75,617.25,780.0,175.5,1502.0,-977.75,-1543.75,-1578.0,7
-237.25,703.75,899.5,758.25,1575.75,-452.0,-1281.25,-1569.0,7
-204.5,679.25,1127.25,1994.25,1462.0,135.75,-1318.25,-1533.75,7
-125.5,721.0,1256.75,1974.75,1152.0,-223.5,-1556.25,-1378.75,7
-197.75,811.5,1132.0,384.25,908.0,-346.25,-1709.75,-1295.25,7
-513.25,725.75,694.0,80.75,1188.75,604.75,-1301.5,-1311.5,7
-507.25,492.0,63.75,43.25,1560.75,1360.5,-814.25,-1264.0,7
-266.0,269.75,-80.25,-51.25,1752.75,1328.0,-828.25,-1154.75,7
-172.25,694.0,-1.5,706.25,1864.75,1052.25,-784.0,-1176.0,7
-176.75,715.75,-341.0,648.75,1914.75,1149.75,-478.25,-1270.5,7
-65.25,535.75,-1272.0,717.75,2266.25,1503.5,-481.0,-1020.0,7
-30.25,111.5,-1607.75,1614.0,2762.75,1690.0,-669.5,-683.75,7
-21.75,152.5,-1622.5,1673.25,2692.5,1337.5,-765.0,-695.25,7
344.25,290.25,-352.75,1619.5,2558.5,1051.25,-871.5,-203.25,7
448.75,357.5,-236.25,1532.25,2384.75,1088.0,-838.5,647.75,7
199.5,-612.25,-279.75,-245.0,1766.0,1131.0,-348.25,411.5,7
230.5,-1230.75,-139.0,-554.5,1324.0,1295.5,375.5,422.5,7
91.5,-1296.0,-65.25,-682.75,725.0,1266.25,359.5,428.25,7
159.25,-1111.75,-412.75,-873.25,237.75,216.0,132.5,539.75,7
71.5,-956.25,-485.0,-982.75,66.0,-927.75,-4.75,657.25,7
-147.25,-845.5,-526.75,-228.5,57.25,-1426.0,-2.25,909.0,7
-70.75,-761.0,-615.25,883.0,31.25,-1114.25,-377.0,1211.25,7
-100.0,-611.25,-678.5,789.5,-395.75,-749.0,-867.5,1469.5,7
-86.0,-548.75,-758.0,767.75,-754.5,-805.25,-941.0,1704.5,7
-22.25,698.25,-690.75,795.5,-943.0,-905.75,3.0,1797.25,7
162.0,1423.0,-379.5,778.25,-935.25,-586.25,914.5,1912.5,7
281.5,1368.5,-112.75,-676.25,-824.75,-415.0,914.5,1931.25,7
424.0,1324.75,-233.5,-1268.5,-726.75,-726.25,1035.75,1310.0,7
466.0,956.5,-903.25,-1328.75,-882.5,-1184.5,1010.75,643.25,7
454.25,685.0,-860.5,496.5,-1087.75,-1471.25,1032.75,368.0,7
658.75,981.75,-295.5,52.25,-1465.25,-1599.5,1320.0,-45.25,7
953.0,1621.0,427.5,-968.5,-1639.25,-652.0,1133.0,-132.25,7
922.0,1624.0,1334.25,-1968.5,-1576.0,555.0,1226.0,-248.0,7
802.0,1453.5,1756.75,-1903.25,-1652.0,519.25,1692.25,-699.25,7
796.75,1438.75,1756.0,-1803.0,-1682.25,323.25,1832.75,-903.75,7
652.0,1444.5,-481.5,-1727.5,-1914.75,659.0,1758.5,-1068.0,7
419.0,1516.5,-371.75,374.25,-2138.25,670.25,1349.25,-931.5,7
306.5,1477.0,-427.5,607.5,-2242.75,653.5,868.5,-671.75,7
52.5,-202.75,-544.25,694.5,-2186.5,101.25,654.5,-213.25,7
-17.25,-705.75,1209.5,127.5,-2001.25,62.25,169.75,192.0,7
-113.5,-754.0,1096.75,-1139.0,-1915.75,120.5,-328.75,318.75,7
-17.5,-809.25,1013.0,-1050.5,-1711.25,-14.5,-574.75,430.5,7
8.0,-986.0,941.0,-988.0,-1382.5,-291.75,-760.5,445.75,7
-48.0,-1398.25,1008.5,1116.0,-746.25,-947.5,-1124.25,823.5,7
-359.5,-1972.5,962.0,1403.75,-445.25,-895.75,-1424.25,1190.25,7
-1197.25,93.0,709.25,1856.75,-558.5,-725.75,-1722.75,1304.75,7
-1354.0,245.0,-659.0,1791.5,-556.5,-58.5,-1628.5,1198.75,7
-965.75,256.5,-2155.25,1686.0,-536.0,652.25,-1408.5,840.5,7
-618.75,-312.25,-2096.25,1699.25,-777.75,216.0,-750.5,892.5,7
-341.5,-1605.5,-1414.0,1560.5,-1009.5,-181.0,202.75,894.0,7
-71.5,-1451.5,-793.5,1501.0,-1179.25,-387.75,651.25,685.25,7
-56.0,-1310.0,-572.75,1399.75,-1216.25,-318.75,809.0,874.75,7
124.75,-451.25,-610.75,355.5,-1236.5,-30.25,645.75,1244.5,7
263.0,594.5,-510.5,-856.5,-1359.25,172.0,484.75,1653.25,7
165.75,890.25,-140.0,-983.25,-1662.0,379.75,220.5,1863.25,7
-29.5,978.25,-278.75,-137.75,-2138.75,406.0,-168.5,1920.75,7
-368.0,1050.5,101.75,-87.75,-2176.25,497.0,-651.5,1687.5,7
-562.25,1065.25,331.25,-32.75,-2233.25,554.75,-523.75,1292.0,7
-355.75,-849.5,505.75,557.0,-2261.25,734.5,167.5,1027.25,7
212.25,-890.5,592.25,659.75,-2297.75,884.5,208.75,376.0,7
546.75,-838.0,454.5,-1231.75,-2199.0,822.5,296.5,-255.25,7
559.75,-826.5,260.25,-1218.5,-2268.0,850.5,276.75,-823.25,7
591.75,-819.0,-623.5,753.75,-2283.75,1045.75,108.0,-1134.5,7
196.5,-410.5,-1622.0,774.0,-2027.5,1357.75,354.25,-1103.25,7
-147.0,-353.0,-1863.5,-903.75,-1931.25,1544.25,379.75,-1110.75,7
-74.5,-858.5,-1628.0,-1258.75,-1931.75,1492.75,759.75,-1066.0,7
186.75,-868.5,-1655.0,-1262.5,-1724.25,1478.25,1032.5,-984.75,7
481.0,-121.25,-1526.0,-1290.5,-1548.25,1520.0,1258.5,-1141.5,7
594.25,191.75,-1041.0,721.75,-1250.25,1282.5,1668.75,-1335.25,7
1223.5,435.75,-429.75,755.25,-863.5,947.75,1596.75,-1216.75,7
1050.75,567.0,-17.25,765.75,-770.0,419.75,1300.75,-994.25,7
882.75,874.25,301.5,722.25,-444.5,47.75,919.25,-619.5,7
-434.75,-878.75,610.75,723.0,-238.75,-329.0,737.0,-238.5,7
-1124.25,-1003.0,590.5,-1063.75,1154.5,-631.0,990.5,-33.25,7
-1251.75,1124.25,837.5,-989.75,1319.25,-784.75,1333.75,-388.25,7
-833.5,1557.0,1323.0,297.75,993.75,-1220.5,1024.25,-572.5,7
-736.25,1576.0,1240.5,362.75,952.75,-1187.75,669.75,30.75,7
-504.25,1482.75,776.75,462.0,742.25,-1130.25,496.0,704.0,7
-457.25,1550.5,206.75,474.0,583.75,-1236.25,399.25,1048.5,7
-657.0,1520.0,-628.0,-1448.0,662.75,-1054.5,85.25,1201.0,7
-518.25,1124.25,-1207.25,-1438.75,935.5,-867.75,-145.75,1331.5,7
208.0,234.75,-430.5,-1328.0,1133.25,-344.75,-260.75,1448.25,7
1212.5,-719.25,128.0,-1192.75,1126.75,-104.0,-288.0,1343.0,7
1667.0,-813.25,172.0,-1056.5,1271.5,-29.0,56.0,1363.0,7
1641.25,-1337.0,-298.75,-883.0,1690.0,325.75,227.25,1728.75,7
1284.0,-2023.75,-568.0,-545.75,2020.75,1173.75,-356.25,2156.25,7
-333.25,-44.0,-992.75,1120.5,1983.5,1614.25,-1280.0,2263.25,7
-1268.5,90.25,-1645.5,1968.5,1472.25,1607.5,-1350.0,2157.75,7
-1453.25,115.25,-1272.5,1861.75,1114.75,1470.25,-654.5,2163.75,7
-1704.75,186.0,-350.75,1893.25,613.25,1599.25,-130.75,2143.5,7
-1576.5,-182.5,612.5,1818.25,503.25,1884.0,264.75,2156.5,7
-1238.5,-1567.5,949.5,1753.75,368.75,1675.25,333.25,1842.25,7
-705.0,-1391.5,254.75,1602.0,543.0,1301.0,424.0,1504.0,7
-409.25,-1327.0,-1036.5,1424.5,470.25,780.5,310.5,411.75,7
-446.75,-713.25,-827.75,1302.0,221.0,540.25,-387.0,-618.0,7
-214.5,545.5,-170.5,889.0,280.0,532.75,-481.5,-997.25,7
-65.75,-551.25,664.25,994.5,312.0,362.25,-560.25,-1168.25,7
37.5,-200.25,1179.75,-1127.5,414.0,168.75,-723.25,-1138.0,7
38.75,414.0,1308.0,-1074.75,420.0,-156.0,-560.75,-1217.25,7
85.5,690.75,1820.25,-851.5,364.75,-471.75,-295.25,-1288.25,7
170.75,1035.0,1572.75,19.5,-42.25,-626.75,341.5,-1524.25,7
230.25,1180.25,1274.0,-350.0,-354.25,-509.0,744.0,-1633.5,7
229.25,1209.0,964.5,-19.5,-574.75,-926.0,365.0,-1613.5,7
298.75,1216.75,161.0,-332.5,-695.25,-1489.0,100.25,-1529.25,7
292.25,1182.0,-670.5,-238.75,-565.75,-1589.5,-59.25,-1471.25,7
311.0,1197.0,-1150.5,-330.75,-413.0,-1775.5,-198.5,-1423.25,7
527.0,1164.0,-796.5,-122.25,-420.75,-1722.75,-125.0,-1471.25,7
1000.75,1090.0,-169.5,14.25,-485.5,-1848.25,-142.75,-1478.75,7
1279.5,1046.0,859.75,79.25,-497.75,-1674.0,-105.0,-852.5,7
1153.5,955.75,993.25,177.75,-570.75,-896.75,-176.75,-382.5,7
462.5,864.75,629.0,82.5,-587.0,-739.25,-244.25,-87.0,7
68.75,804.0,830.75,13.25,-536.75,-1022.25,-195.0,147.25,7
-172.25,710.0,496.75,-194.25,-504.5,-1165.5,-178.5,229.25,7
-224.75,571.0,730.25,-316.0,-494.25,-1272.75,-175.25,112.25,7
-113.25,468.5,809.25,-486.25,-509.75,-1242.25,-83.0,-292.5,7
69.0,382.5,-927.0,-495.5,-466.25,-1142.75,170.25,-796.0,7
173.5,323.25,-1770.75,-440.5,-350.75,-975.25,277.75,-954.5,7
-303.5,221.25,-1307.25,-315.0,-409.25,-863.5,262.5,-912.25,7
-827.25,90.0,-952.5,-254.75,-493.0,-833.5,286.0,-1018.0,7
-893.75,51.75,-732.75,-270.5,-483.0,-868.25,251.75,-1409.0,7
-732.5,34.25,-1218.0,-280.25,-451.25,-953.25,193.0,-1742.25,7
-578.0,35.25,-1232.5,-329.25,-440.75,-957.0,265.0,-1934.0,7
-337.5,67.5,-657.5,-344.5,-445.75,-1021.5,437.25,-1284.0,7
-37.75,60.5,-410.25,-425.5,-316.0,-998.5,603.25,-720.25,7
-242.75,47.0,63.5,-472.75,-74.25,-1061.25,633.0,-302.5,7
-426.25,-2.25,138.25,-552.0,168.25,-1033.25,553.75,158.5,7
-326.0,-72.75,350.5,-555.0,487.5,-912.25,377.0,310.5,7
-357.0,-50.75,420.0,-519.25,1010.0,-871.5,174.25,275.5,7
-465.25,-15.75,493.75,-461.0,1362.0,-726.25,56.75,297.25,7
-561.25,-128.5,765.0,-411.0,1304.75,-708.5,-21.0,485.0,7
-484.5,-282.0,799.5,-355.75,1162.5,-700.5,63.75,696.0,7
-81.5,-341.25,340.75,-291.75,1189.25,-722.0,295.5,777.5,7
570.75,-319.5,417.75,-286.25,974.5,-999.0,573.5,813.0,7
1230.25,-275.5,1089.25,-325.0,276.5,-1032.75,705.25,1036.5,7
1232.25,-275.75,997.5,-410.5,-101.0,-843.5,809.5,1278.75,7
1210.75,-286.25,793.0,-398.75,-107.25,-726.0,713.0,1387.0,7
1204.5,-396.25,131.75,-399.0,-243.75,-695.5,160.25,1425.25,7
1096.0,-551.0,394.25,-379.25,-298.0,-534.5,-525.25,1414.5,7
896.5,-579.5,595.0,-332.25,-259.5,20.0,-624.0,1331.0,7
579.5,-439.5,447.0,-266.75,-201.0,538.5,-668.0,1149.5,7
333.0,-322.5,-565.5,-181.25,-30.25,909.75,-742.0,929.75,7
116.0,-262.75,-1277.0,-146.25,-149.5,1201.75,-800.5,557.75,7
-58.5,-216.0,-1772.75,-110.5,-404.75,988.5,-848.25,202.75,7
-222.25,-198.5,-1647.75,-133.0,-80.5,812.0,-669.5,-77.75,7
-250.25,-198.25,-1307.0,-137.5,393.75,842.75,-555.75,-509.75,7
-176.0,-199.0,-613.25,-46.0,460.75,860.25,-264.25,-714.25,7
-102.5,-163.5,74.75,65.25,719.0,898.5,-99.75,-379.25,7
-69.25,-149.25,539.5,115.25,1199.0,1048.25,-111.0,13.25,7
-69.5,-155.25,1132.25,109.75,1393.5,1224.25,-172.25,477.25,7
22.75,-210.25,599.5,141.75,1177.75,1175.5,-361.25,1036.75,7
21.5,-301.0,623.0,205.5,1263.5,1113.25,-518.75,1067.25,7
-58.75,-315.5,414.25,269.5,1217.5,1076.5,-512.5,711.25,7
57.25,-260.5,130.75,271.75,145.75,993.75,-137.25,130.5,7
169.25,-254.25,-35.25,263.75,-888.75,930.0,197.75,-457.0,7
-36.0,-227.75,-534.25,259.25,-1049.0,828.25,462.25,-1215.75,7
-364.5,-151.5,-243.0,198.0,-1202.0,725.5,777.75,-1702.25,7
-404.0,-130.75,254.0,176.25,-1527.5,676.5,818.0,-1061.5,7
-55.0,-121.75,968.5,173.25,-1251.5,816.75,445.25,-78.0,7
181.25,-102.25,1135.25,193.0,-347.0,917.25,-429.0,289.75,7
157.0,-44.75,438.0,221.25,143.75,736.25,-1148.75,753.75,7
71.75,-2.75,-298.0,227.5,79.5,472.5,-1319.5,806.0,7
-95.25,28.0,-146.75,205.5,-358.0,255.0,-1132.5,391.0,7
-251.75,94.25,-439.75,196.75,-352.75,271.75,-989.5,139.25,7
-239.5,96.25,-1065.25,242.0,-9.75,349.75,-823.5,-226.25,7
-144.25,62.0,-519.5,173.5,257.75,291.5,-284.5,-130.0,7
-211.25,3.0,428.5,100.25,136.75,171.25,259.0,165.75,7
-424.5,-41.75,1058.75,84.5,-203.0,36.0,339.25,61.25,7
-304.75,-79.0,407.25,82.75,-514.5,-75.5,346.0,269.0,7
219.5,-105.25,-397.25,115.75,-780.0,-271.25,357.5,431.25,7
405.75,-102.25,-471.75,102.0,-707.5,-469.75,503.0,434.25,7
172.75,-65.75,-113.0,29.0,-979.5,-627.0,591.0,450.5,7
-38.75,-12.75,79.25,11.5,-1250.5,-899.75,427.25,369.0,7
-262.5,29.25,45.0,78.75,-1307.5,-895.0,218.0,231.75,7
-533.5,59.5,11.0,137.5,-1465.0,-978.25,-19.25,21.75,7
-717.0,41.5,438.75,186.5,-1391.75,-899.5,-25.25,-236.75,7
-570.25,80.5,1469.25,223.0,-1042.5,-686.25,116.75,-613.0,7
-394.75,139.75,1457.25,243.25,-655.5,-636.75,192.5,-766.25,7
-384.75,206.5,1333.75,332.75,-408.25,-697.25,165.75,-565.0,7
-299.5,161.75,1413.75,396.25,-95.5,-730.75,159.0,-420.25,7
-271.5,122.0,1213.25,380.0,362.25,-700.0,23.75,-166.5,7
-253.75,167.75,1091.5,375.5,685.25,-665.5,62.5,156.75,7
-456.25,134.25,511.0,352.5,856.5,-604.0,119.75,113.0,7
-549.0,141.5,177.0,240.75,1095.5,-504.25,62.0,61.75,7
-713.5,194.0,68.0,223.0,1121.0,-373.5,140.25,-119.75,7
-754.75,217.5,-149.25,307.5,881.0,-238.25,261.0,-89.25,7
-737.0,195.5,-463.75,258.5,345.75,-84.5,483.0,330.75,7
-599.25,189.25,-526.5,72.75,205.5,51.5,579.5,262.75,7
157.75,203.5,-714.75,-52.25,760.0,229.5,717.75,248.5,7
744.0,232.75,-859.5,-128.25,1217.5,419.5,640.25,202.5,7
914.5,307.5,-865.5,-397.0,1231.25,426.75,673.5,165.75,7
1021.5,642.75,-439.5,-1016.25,801.25,-77.5,1085.5,-79.5,7
1448.5,918.5,190.5,-1130.25,204.5,-277.0,742.0,-430.25,7
1311.0,756.0,579.75,-929.0,167.25,-312.75,421.25,-496.75,7
800.25,540.75,618.0,-839.25,400.25,-593.75,432.25,-450.75,7
428.5,445.75,651.25,-827.75,439.5,-836.75,282.5,122.5,7
9.25,282.0,-469.75,-832.0,492.75,-932.5,118.0,436.5,7
-105.25,135.5,-1130.0,-781.0,426.75,-1046.0,-167.0,849.0,7
215.25,-15.25,-1365.75,-435.75,783.0,-1006.5,-444.75,1062.25,7
175.25,-22.5,-1288.5,-110.0,734.0,-1033.5,-455.5,839.25,7
506.5,56.0,-1385.5,287.25,695.25,-902.75,-293.25,725.0,7
734.75,28.25,-1520.75,635.5,525.5,-755.5,63.75,700.5,7
944.75,50.0,-1444.5,727.75,428.75,-859.0,197.5,843.25,7
1032.75,81.25,-1613.25,579.5,371.0,-1128.0,271.25,803.0,7
809.75,56.5,-1497.75,640.75,607.25,-981.75,284.5,964.25,7
625.5,55.25,-1220.0,678.0,818.0,-626.5,418.25,925.25,7
178.75,160.0,-779.0,757.25,725.25,-287.5,696.75,977.5,7
-440.0,42.0,-349.5,738.75,598.75,-185.0,959.0,881.25,7
-806.0,-88.25,-19.5,627.25,372.75,-118.5,1066.0,584.25,7
-659.75,-181.0,-331.25,599.0,131.75,756.25,1023.25,325.25,7
-790.75,-491.0,-602.5,653.25,292.75,1060.25,940.0,100.25,7
-534.75,-841.25,-504.5,704.5,608.5,767.0,743.5,215.75,7
206.75,-812.75,-680.75,392.0,722.5,779.25,437.5,281.25,7
-208.5,-730.75,-528.5,174.0,644.75,727.25,-6.5,265.0,7
-130.0,-757.75,-269.75,634.25,852.25,651.75,-603.5,160.25,7
-816.25,-595.75,370.0,1169.75,1206.5,706.5,-774.5,-9.5,7
-1262.0,-141.75,566.75,1198.75,1184.25,752.5,-685.75,-92.5,7
-1649.75,97.25,137.25,654.5,964.75,430.75,-462.75,-220.75,7
-1640.75,-99.5,-323.0,376.75,366.25,79.5,-539.25,-299.25,7
-1373.0,-616.5,-1479.25,493.0,-113.0,-261.0,-653.0,-432.25,7
-1310.75,-814.25,-1896.75,408.25,-69.75,-480.5,-1039.5,-411.5,7
-844.25,-580.75,-1978.25,167.75,-50.75,-490.25,-1166.0,-320.5,7
82.75,-559.0,-1638.75,-42.25,94.75,-481.5,-1179.75,-243.5,7
707.0,-916.25,-635.25,129.75,233.5,-336.0,-1079.0,-126.75,7
727.0,-799.25,260.75,642.25,174.5,-280.5,-775.0,-104.75,7
983.5,-581.0,445.5,555.25,493.75,-96.75,-586.5,-99.25,7
1346.25,-587.25,313.0,-10.25,841.5,-27.25,-465.75,-45.5,7
1491.75,-515.25,599.75,-623.25,777.0,3.5,-615.25,-30.75,7
1488.0,-415.5,798.25,-1008.75,451.25,95.0,-753.5,-72.25,7
1168.75,-22.25,1046.0,-973.0,182.0,164.0,-764.5,-178.25,7
661.25,291.5,1361.75,-1.25,92.5,313.0,-739.5,-189.25,7
54.5,540.75,1930.75,670.0,-42.75,246.5,-749.5,38.25,7
-95.5,707.25,2506.25,-263.25,-125.5,149.0,1181.75,148.5,7
-204.25,1137.0,2245.25,-1365.25,-236.0,69.5,1172.75,5.75,7
-245.5,1122.0,1794.0,-1358.5,-301.75,-21.5,787.25,-257.25,7
-189.25,1116.5,1318.0,-1144.5,-300.25,-161.5,435.75,-429.5,7
-427.5,33.75,885.25,-1022.0,-185.75,-293.0,998.0,-547.75,7
-303.5,125.0,283.5,-971.5,-34.0,-328.5,896.25,-584.0,7
342.75,643.5,-52.25,-917.75,-145.0,-389.25,375.75,-524.0,7
299.25,-89.75,-206.25,-967.5,-305.25,-482.25,-19.0,-558.0,7
-419.0,-395.0,-122.0,-1065.0,-418.5,-333.0,-424.25,-612.25,7
-794.75,-490.5,-394.5,-636.75,-473.5,-6.75,-870.0,-675.0,7
-1018.75,-72.5,-906.25,209.0,-464.0,138.25,-1125.5,-735.25,7
-1017.25,813.75,-1135.75,812.75,-494.75,155.5,-968.0,-693.75,7
-1146.25,104.0,-1249.5,856.5,-840.25,157.0,-825.5,-586.5,7
-1274.25,-538.0,-1429.75,883.0,-1211.75,108.75,-820.25,-632.75,7
-1299.5,-888.25,-1521.5,653.0,-945.0,216.75,-867.0,-684.0,7
-1346.5,-997.25,-1710.0,59.5,26.75,761.75,-136.75,-568.75,7
-874.5,-981.0,-1757.5,-892.5,581.0,1100.25,453.25,-365.75,7
-376.75,-667.75,-1375.5,-1150.0,577.75,844.25,-394.25,-133.25,7
119.0,-482.5,-1082.75,-942.5,89.0,488.5,-584.25,-26.5,7
478.0,119.0,-888.25,-811.75,-484.5,235.0,203.25,-145.0,7
725.75,542.5,-575.25,-600.25,-875.75,73.5,558.5,-286.25,7
670.5,810.75,-167.75,-456.75,-1227.5,292.5,721.0,-352.75,7
464.25,694.5,296.5,-110.75,-1495.0,809.0,-187.75,-681.0,7
390.25,476.25,652.75,554.5,-1539.25,946.0,-466.25,-908.75,7
36.5,605.25,870.25,1105.25,-1203.75,768.5,-7.25,-745.75,7
-288.5,386.75,723.0,1541.5,-383.5,505.5,308.25,-593.25,7
-456.25,460.75,373.5,1787.0,-471.75,176.5,347.25,-539.5,7
-459.5,588.75,150.75,1261.75,-682.0,5.25,-64.75,-323.5,7
-583.5,315.25,-0.75,-266.0,-666.5,42.0,45.0,-46.25,7
-630.25,413.75,24.5,-1293.0,-373.25,178.0,-323.5,19.25,7
-68.25,747.5,254.75,-1035.25,-19.75,209.25,-157.5,-120.75,7
685.25,800.5,527.0,-423.25,26.5,175.5,-46.5,-409.0,7
1174.0,593.5,640.75,-209.75,-3.5,133.75,-300.0,-450.5,7
1141.75,502.75,516.0,-340.0,-26.0,214.0,-454.0,-477.75,7
1326.5,685.25,298.0,-619.25,-13.5,227.75,-615.5,-483.25,7
1377.75,669.5,51.0,-779.75,-33.0,293.25,-545.25,-648.0,7
1118.0,529.0,39.25,-828.0,-177.0,338.75,-773.5,-810.0,7
499.0,115.75,287.75,-693.75,-160.5,184.75,-732.0,-563.5,7
118.0,-117.25,345.25,382.0,-70.5,22.5,-895.0,-214.5,7
-33.0,889.5,231.25,1422.25,-132.0,-242.0,-970.25,-49.25,7
-303.5,894.25,226.25,1156.75,-366.75,-254.5,-973.0,4.5,7
-731.5,893.75,80.5,805.5,-556.75,-319.5,-849.5,-242.0,7
-834.25,844.0,-143.0,633.0,-582.75,-401.5,380.75,-411.25,7
-683.0,142.0,-160.5,645.0,-337.75,-351.25,1370.25,9.75,7
-635.0,-1300.25,-349.75,620.25,44.25,-1.75,1622.75,1128.75,7
-469.75,-1254.25,-518.0,784.5,270.75,359.75,1927.75,1228.5,7
-398.75,-1163.75,-262.0,555.0,401.25,310.75,1433.75,1310.75,7
-265.75,-1188.75,-21.25,33.0,363.25,296.5,293.25,1347.25,7
-172.25,-1131.25,34.0,-387.75,273.5,245.25,308.25,1445.0,7
-96.0,-1106.75,-1.75,-627.75,356.0,-49.75,1077.0,1520.5,7
77.75,-1247.5,13.75,-150.75,542.25,-404.75,2004.5,1436.75,7
68.75,-1053.25,309.25,528.0,693.25,-541.75,2021.75,793.0,7
96.25,-576.75,635.0,869.5,762.5,-588.5,1727.5,135.5,7
235.75,713.25,750.5,1069.5,955.0,-618.75,1547.5,98.5,7
449.5,941.5,793.5,441.5,1089.0,-586.75,1429.5,646.5,7
373.75,1083.75,1193.25,-462.25,1011.25,-362.0,1160.0,478.75,7
298.75,1123.5,870.25,-388.5,1028.25,-82.25,821.25,503.5,7
260.0,966.75,-3.25,-779.0,1013.25,-174.25,677.0,705.0,7
41.0,55.5,-94.5,-363.0,957.5,-384.75,617.0,837.75,7
-123.25,-115.75,-364.5,-35.0,902.25,-598.75,552.75,960.5,7
-116.5,-796.0,-890.75,-24.0,731.5,-909.25,437.75,1025.75,7
-122.25,-1152.25,-1303.0,-8.75,606.25,-1055.5,130.25,967.75,7
-146.5,-1081.75,-1564.0,24.0,622.0,-900.25,-135.75,199.5,7
-26.5,-837.0,-1090.25,49.5,658.75,-487.25,-469.75,-433.0,7
27.75,444.0,-513.0,29.75,535.0,-120.25,-609.25,-461.0,7
37.75,842.0,-240.5,-754.0,320.75,176.75,-681.0,-455.25,7
104.25,899.5,-300.5,-977.25,-44.0,278.25,-773.0,-471.25,7
203.75,435.25,-456.75,-1170.75,-459.75,179.25,-872.0,-577.5,7
168.0,177.5,-823.0,-33.25,-798.5,119.75,-976.0,-604.75,7
-17.25,583.0,-995.5,-11.0,-1014.5,-82.5,-1156.25,-597.75,7
-53.75,623.0,-702.5,-2.5,-981.0,-55.0,-1212.0,-611.25,7
-10.75,901.0,-227.75,-2.0,-918.25,-12.75,-1172.5,-273.5,7
29.0,1571.25,255.75,-18.75,-837.0,83.0,-1215.5,-6.0,7
210.5,1560.75,500.25,-31.75,-789.25,360.75,-1255.5,-95.25,7
223.5,1169.75,537.0,-412.0,-680.0,248.75,-1247.5,-153.75,7
-25.75,666.0,559.0,-1070.5,-554.75,311.5,-1212.25,-22.5,7
-228.25,527.0,634.5,-837.75,-677.5,542.75,-1224.75,-293.5,7
-252.0,813.75,614.0,-56.5,-822.75,568.5,-1187.0,-716.0,7
-160.75,1082.5,722.5,503.25,-924.5,615.0,-1200.25,-617.0,7
-140.5,628.5,632.0,12.25,-1101.0,715.0,-1263.0,-505.5,7
-96.75,3.5,288.5,321.25,-1165.25,738.25,-1419.5,-405.0,7
86.0,-148.5,165.5,1089.5,-1041.75,773.5,-1603.75,-172.0,7
44.0,-276.25,44.25,1256.5,-875.25,811.75,-1733.5,-430.5,7
-164.25,1.75,-111.75,1276.0,-804.75,653.75,-1716.0,-803.0,7
-291.0,8.75,-116.0,744.75,-827.0,439.5,-1507.75,-1063.25,7
-424.0,112.5,229.25,42.0,-1019.5,-2.75,-1038.5,-1272.5,7
2.25,595.0,832.0,-542.5,-1461.75,-671.5,-932.0,-1318.25,7
524.5,1198.0,787.0,-1698.0,-1282.25,-590.25,-1023.0,-1242.75,7
615.0,678.0,702.5,-647.0,-1015.0,-147.0,-881.75,-1243.75,7
698.75,594.25,659.25,160.25,-1118.0,72.75,-708.0,-1124.25,7
908.5,553.5,36.25,-282.75,-1107.0,504.0,-770.25,-1041.25,7
780.25,480.75,-383.25,-284.5,-828.0,611.5,-850.5,-937.0,7
392.5,465.75,-417.5,-352.0,-318.25,550.25,-1047.75,-587.75,7
176.5,278.75,-601.5,-1036.25,142.5,708.25,-632.0,-585.75,7
101.25,254.25,-333.0,-1160.75,454.75,803.0,-138.75,-52.25,7
-147.75,135.75,-393.0,-767.75,811.5,943.75,69.75,417.75,7
-315.5,98.0,-226.0,-332.5,1169.75,909.0,106.25,1015.5,7
-233.5,-211.75,-66.5,-349.5,1299.75,916.0,110.75,1071.75,7
-62.0,-130.75,-195.75,-538.75,1305.25,720.25,148.25,1004.75,7
-125.5,623.0,-67.0,474.0,1324.5,676.0,102.25,976.25,7
-176.0,231.75,-162.0,1004.5,1334.5,671.25,140.5,943.25,7
-42.5,94.5,-285.0,767.75,1308.5,472.0,141.5,945.0,7
-278.5,333.5,-325.0,286.75,1277.0,395.25,204.5,939.5,7
-430.75,1002.75,-474.0,284.5,1211.5,448.75,284.75,980.0,7
-428.25,1116.75,-454.0,310.5,944.75,763.75,379.0,1026.0,7
-694.25,668.0,-324.5,325.75,1145.25,813.75,514.25,1056.5,7
-989.0,659.25,-365.75,554.5,1145.0,560.0,623.5,1115.5,7
-1154.0,823.75,-315.5,1223.25,1096.5,319.0,662.0,1192.5,7
-1176.25,195.0,-21.0,2167.75,1092.5,-239.75,690.75,1230.0,7
-1193.5,-240.25,80.25,1507.25,1044.75,-457.5,808.75,873.5,7
-1101.75,-907.5,37.75,635.25,1008.25,-294.75,818.0,-3.75,7
-741.0,-2354.0,166.5,309.0,948.5,29.25,830.75,822.25,7
-415.75,-2461.25,111.5,13.5,961.25,317.75,842.25,1218.0,7
-14.5,-2706.75,169.25,-303.75,450.75,235.75,760.5,1342.75,7
472.25,-2739.0,279.75,284.5,-276.75,147.25,648.75,1131.0,7
560.75,-2668.75,310.75,1395.75,-77.25,-508.75,478.0,482.25,7
336.25,-494.0,158.0,1664.0,937.5,-508.5,402.25,189.75,7
119.0,282.0,-279.0,1560.25,909.75,-501.0,422.25,-193.75,7
174.0,831.25,-526.25,1441.0,562.75,-422.0,446.25,-93.0,7
157.0,584.25,-687.25,1482.75,132.75,-396.0,469.0,-274.5,7
117.5,-422.0,-753.0,487.75,72.5,-491.75,349.5,-1077.25,7
127.25,-348.5,-838.0,248.75,-26.5,-569.0,109.0,-1482.5,7
125.75,-233.5,-553.25,155.5,-328.75,-612.0,-78.25,-1372.5,7
188.5,-160.25,-310.75,43.75,-998.75,-540.75,-55.25,-846.5,7
150.5,-539.0,-143.5,-54.25,-1418.75,-778.25,135.5,-892.5,7
-57.5,-1133.25,-195.25,265.0,-1440.75,-1104.75,330.5,-609.75,7
-226.0,-970.5,-272.25,-569.0,-1463.0,-1028.0,412.25,89.25,7
-200.25,-321.25,-188.75,-868.25,-1269.75,-908.5,353.0,507.25,7
-170.5,479.25,-305.75,-621.5,-557.25,-884.25,208.75,4.5,7
-346.75,204.0,-381.5,-790.0,-140.75,-582.0,120.25,-1190.5,7
-366.75,216.0,-355.25,-698.5,-62.25,-687.25,51.0,-859.0,7
-92.0,378.0,-179.5,-389.0,-122.5,-615.75,82.5,-48.5,7
8.0,211.25,16.25,-402.0,57.25,-673.75,118.0,191.0,7
113.0,731.75,269.25,-497.75,474.5,-916.75,14.25,-140.75,7
197.75,1049.0,483.75,-420.5,394.75,-969.0,62.0,-256.25,7
300.5,1537.5,677.25,-0.25,197.25,-1369.25,371.5,-726.25,7
669.25,2742.25,1215.25,-205.0,-72.75,-1820.5,646.25,-1510.75,7
1088.5,2663.5,1351.75,-888.5,206.5,-1791.5,694.75,-1147.25,7
979.75,2058.75,1003.0,-1560.25,664.25,-1691.25,582.0,-992.75,7
713.0,1640.5,871.25,-1583.25,922.75,-1750.75,582.0,-150.5,7
566.5,435.75,942.0,-1038.75,721.0,-1796.25,510.75,366.5,7
453.25,-595.0,847.5,-723.0,-329.25,-1776.5,545.25,385.75,7
584.5,-548.5,720.75,-290.75,-824.0,-1684.25,548.0,829.0,7
569.5,-911.75,232.5,-423.25,-625.5,-1285.25,629.75,397.0,7
386.0,-846.0,-159.25,-282.0,-378.75,-478.25,765.0,563.0,7
539.75,-76.75,-504.25,-525.5,-118.75,-415.25,907.5,741.75,7
430.25,0.25,-704.75,-608.5,-84.75,-985.75,893.0,1220.5,7
117.25,-104.5,-863.75,-275.0,-16.0,-1010.5,641.75,1019.75,7
-274.5,479.0,-827.5,85.5,690.0,-790.25,367.25,1002.5,7
-332.25,873.5,-702.5,-819.75,482.25,-16.25,120.25,1045.25,7
-374.75,838.25,-548.75,-1265.25,320.0,1003.25,67.5,864.75,7
-225.75,796.0,-224.0,-1133.5,672.5,1167.5,105.25,917.75,7
-37.0,37.0,204.0,-1041.25,937.0,1220.0,99.75,697.75,7
84.0,-730.75,455.0,-352.75,1169.75,1321.0,-78.5,953.75,7
355.5,-1034.5,66.25,780.0,1448.0,1449.0,-289.0,1022.0,7
685.25,-945.0,-600.0,951.5,1209.25,1454.0,-398.0,956.0,7
701.75,-835.25,-1120.0,1149.5,972.25,1417.25,-559.75,624.0,7
333.75,-902.75,-1446.5,1501.5,934.5,1510.75,-877.0,746.0,7
-466.25,-1228.5,-1973.75,1600.25,1204.5,1781.0,-1002.75,841.25,7
-1212.25,-57.25,-2097.0,1578.0,1280.25,1722.75,-1036.0,773.75,7
-1320.75,305.0,-1568.25,1226.5,990.5,1422.75,-996.0,793.5,7
-1163.5,636.0,-805.25,90.25,846.75,1400.75,-831.5,686.75,7
-1156.5,981.75,148.0,-797.25,393.0,1268.25,-575.25,441.0,7
-689.75,1193.25,1050.5,-1006.5,119.25,1206.75,-352.5,248.5,7
-447.75,1265.25,1536.25,-1065.75,39.5,1193.25,-167.25,292.75,7
-125.25,975.5,1773.75,-255.0,-132.75,1146.5,-289.25,384.75,7
-450.5,435.75,1935.5,-177.25,-765.5,1040.75,-277.0,172.0,7
-547.25,29.0,1744.0,-987.75,-667.0,983.0,-307.25,107.0,7
-837.0,-575.75,1322.5,-811.75,44.25,1055.0,-391.75,133.5,7
-1272.0,53.25,1006.0,-616.75,494.25,998.75,-435.75,80.25,7
-1203.5,599.75,432.5,-148.25,921.25,948.0,-457.75,3.75,7
-960.25,249.75,146.75,221.0,903.25,843.25,-252.0,-194.25,7
-366.25,-8.5,300.5,620.25,822.25,508.0,-138.5,-346.25,7
-45.5,-828.75,392.25,849.0,516.0,-36.0,-68.75,-502.75,7
205.75,-843.5,309.5,841.0,-180.75,-515.25,-45.75,-580.75,7
283.25,-922.0,82.75,560.5,-648.5,-1018.75,-57.75,-553.5,7
334.75,-965.25,-294.25,491.25,-1165.5,-1213.5,117.5,-622.25,7
814.5,-983.5,-788.5,623.5,-1655.0,-1198.75,213.25,-767.0,7
1448.0,115.75,-986.75,458.0,-1837.5,-1179.5,103.0,-883.5,7
1965.5,1052.75,-1216.5,356.25,-1703.0,-1121.75,48.75,-909.0,7
1931.25,1024.25,-1329.25,477.5,-1491.0,-1058.25,16.5,-805.75,7
1479.5,974.25,-1105.0,538.5,-1490.25,-1006.5,34.25,-719.5,7
562.75,1045.75,-459.75,817.75,-1536.25,-966.25,-139.0,-666.25,7
-346.75,543.75,231.5,997.75,-1562.75,-932.75,-372.5,-613.25,7
-887.75,254.5,969.5,1121.0,-1941.25,-906.0,-377.75,-526.5,7
-1171.25,338.5,1180.75,1066.0,-2149.5,-868.5,-427.75,-426.75,7
-1313.25,292.0,1057.75,529.25,-2308.75,-831.5,-443.0,-344.25,7
-1419.25,71.0,768.0,-529.25,-2352.75,-806.75,-409.5,-227.5,7
526.75,-16.5,610.5,-833.75,-2293.75,-824.75,-241.0,-213.25,7
759.0,-141.5,992.5,-890.0,-2264.75,-907.0,-73.5,-148.75,7
756.25,-173.5,1587.5,678.25,-2139.75,-971.0,-8.5,-87.0,7
418.0,-124.25,1648.0,830.25,-1606.0,-963.5,29.75,-102.5,7
303.75,-187.0,702.5,7.5,-988.25,-940.25,-23.5,-139.5,7
561.5,-138.5,-583.25,-638.75,-580.25,-717.5,-13.25,-121.0,7
522.5,-97.0,-1711.25,-1034.25,-505.25,-476.0,-17.0,-37.5,7
606.25,28.75,-1918.25,-1192.75,-606.0,-438.75,92.25,36.25,7
751.25,-72.5,-1937.5,-1251.5,-645.0,-445.0,148.0,195.25,7
274.0,-107.0,-1957.5,-821.0,-711.0,-668.25,90.75,397.0,7
172.5,18.5,-1953.5,-567.0,-967.0,-1028.25,19.5,610.0,7
253.25,54.0,-1976.0,-541.5,-951.0,-1048.5,-105.0,721.0,7
-9.75,-59.25,-1171.75,-435.25,-882.75,-850.75,-123.25,783.5,7
-312.5,-195.5,1175.5,-423.0,-855.25,-306.75,47.75,829.0,7
-460.25,-210.25,1957.75,-397.5,-431.75,-423.75,344.25,791.25,7
-384.0,-174.75,1936.0,-353.0,147.25,-116.75,522.75,641.5,7
69.75,-83.25,1922.0,-269.25,331.75,-56.25,525.25,407.25,7
272.5,-89.0,1895.25,-181.75,262.0,50.25,539.75,97.0,7
253.75,-171.75,1894.25,137.0,126.25,368.25,591.5,-303.75,7
137.0,-213.0,1973.75,478.25,-177.75,495.25,557.0,-661.75,7
-95.75,-99.5,1815.0,534.0,-642.75,689.5,533.0,-740.25,7
-553.75,31.0,1389.75,522.25,-728.0,785.25,282.0,-610.75,7
-656.0,135.5,987.75,358.5,-781.5,971.5,-129.25,-632.75,7
-243.5,307.0,292.5,-99.5,-1045.5,994.0,-181.25,-847.25,7
266.0,359.25,-554.75,-513.25,-1013.25,1069.25,-204.75,-1096.25,7
753.5,332.5,-1132.75,-476.0,-850.25,1056.0,-274.0,-1159.25,7
943.5,289.0,-1710.25,-78.25,-330.5,948.5,-423.5,-1013.75,7
651.0,-39.25,-2087.5,276.5,219.0,925.0,-569.5,-857.75,7
105.25,-178.0,-1901.25,98.5,-652.0,459.75,-66.0,-956.0,7
-392.0,64.0,-1355.25,-107.0,-1227.75,74.75,242.0,-758.5,7
-1243.25,374.5,-1306.5,-266.0,-1289.5,11.5,198.25,-499.25,7
-1968.75,573.0,-1201.75,-429.25,-1184.0,270.75,234.25,-437.75,7
-1705.0,694.75,-745.75,-467.75,-357.5,575.0,128.5,-123.25,7
-1416.25,577.25,-972.0,-416.75,674.5,886.25,-174.75,376.5,7
-310.75,658.0,-1495.25,-304.25,1247.5,699.25,-88.5,448.25,7
1079.25,994.25,-1890.25,149.0,1641.0,549.0,-61.75,457.0,7
985.75,1082.75,-2487.5,591.75,1656.0,533.75,-185.0,879.25,7
723.75,455.0,-2585.5,866.25,1483.5,1020.25,-471.75,1934.5,7
-78.25,160.75,-1916.25,1045.0,1041.25,1331.0,-244.0,1811.5,7
-19.75,275.25,-938.75,1124.75,98.25,1197.25,40.0,1463.25,7
282.25,427.0,-599.5,889.25,-602.5,1154.0,331.0,1225.25,7
-378.5,-877.5,-492.25,521.25,48.5,1040.75,513.25,920.5,7
-471.0,-956.5,-95.25,905.5,881.75,1206.0,421.75,852.5,7
-1348.0,-968.25,299.75,1069.0,443.5,1043.0,523.25,669.0,7
-1230.75,-1040.0,148.5,1174.0,-190.75,454.75,485.25,396.75,7
-1284.5,-1243.75,267.25,1964.75,-240.25,338.25,384.75,519.25,7
-608.25,-1012.25,433.25,408.75,-33.75,589.5,435.0,331.25,7
143.75,-827.0,486.5,-827.5,449.0,1008.5,365.75,567.75,7
-213.5,-1070.5,346.25,22.25,816.5,857.5,355.5,669.75,7
-465.25,-521.75,94.0,-575.75,788.25,853.0,376.25,690.5,7
-1356.5,-484.0,31.5,-888.0,839.0,537.0,480.75,526.0,7
-1433.75,-308.75,77.25,-17.75,838.0,-169.5,508.75,306.0,7
-1012.5,-248.0,-54.25,380.25,745.5,-369.5,530.5,191.25,7
-549.75,-105.75,-376.5,94.75,1006.5,-463.5,576.25,1.25,7
-255.5,328.75,-842.5,9.0,1223.5,-472.25,643.25,-177.0,7
-157.25,172.25,-807.5,-582.5,1709.25,-229.0,714.5,-289.0,7
-151.0,352.5,-396.25,-1068.75,2213.5,79.25,657.25,-174.75,7
-285.75,461.5,-93.5,-1417.5,1798.25,300.5,605.75,-288.25,7
-151.25,448.0,182.5,-1677.0,1365.75,457.0,530.25,-396.25,7
71.5,712.0,272.75,-1784.0,750.25,321.5,494.5,-528.0,7
400.75,1068.5,272.5,-1671.25,442.0,99.0,505.25,-685.5,7
432.25,1029.25,284.75,-1067.25,210.75,144.5,481.5,-787.75,7
278.5,557.25,286.5,-394.25,-32.5,259.75,500.0,-851.75,7
-21.5,383.25,286.75,341.25,-197.75,156.25,677.5,-911.75,7
-161.25,429.0,272.25,831.75,-203.0,-367.25,863.5,-931.0,7
-176.75,462.25,409.25,524.5,-295.75,-694.75,1072.0,-740.5,7
-403.5,815.25,807.5,164.75,-91.25,-286.75,859.0,-877.5,7
-453.75,686.0,754.25,24.25,577.75,255.5,525.75,-1399.0,7
328.5,1147.75,344.0,325.0,820.75,518.0,442.75,-1412.5,7
739.75,1527.75,149.75,309.0,4.75,289.0,29.75,-1335.5,7
757.75,1165.0,-190.25,-439.75,-464.0,211.0,-704.75,-1219.25,7
846.5,980.0,-217.5,-925.25,383.5,174.5,-851.75,-1111.5,7
788.5,331.5,-97.0,-467.0,1206.25,143.75,-640.0,-1202.25,7
824.25,-455.0,80.5,203.75,1685.25,74.25,-376.25,-1302.25,7
728.25,-1075.5,95.25,767.75,1838.25,201.75,-465.0,-1508.75,7
740.75,-1250.25,-224.75,420.25,1953.75,-25.5,-595.25,-1713.25,7
760.75,-1101.0,-338.25,-227.0,1775.5,-464.75,-570.25,-2036.5,7
665.25,-877.5,-380.75,-329.75,1650.75,-412.25,-459.25,-2137.0,7
414.5,-1276.25,-355.25,-611.5,1524.5,-240.5,-489.75,-2105.75,7
-202.25,-1316.25,-96.25,-496.25,1055.75,-150.0,-677.75,-1915.5,7
-448.0,-561.25,488.25,-114.0,786.25,-243.75,-733.5,-1646.75,7
-638.25,293.75,800.25,607.5,477.75,-494.75,-763.0,-1398.25,7
-591.0,329.75,715.0,-63.25,753.75,-387.25,-771.5,-1098.5,7
-303.0,453.75,587.5,-206.0,880.25,55.75,-814.75,-858.5,7
-52.0,539.75,478.0,-288.75,855.5,517.5,-888.75,-614.0,7
363.5,598.75,351.25,-104.0,770.0,1053.0,-957.25,-322.75,7
826.25,401.25,204.25,116.5,382.25,1108.5,-927.75,-118.0,7
1089.0,235.75,57.0,143.0,496.0,797.0,-865.0,18.75,7
1132.25,332.5,-117.0,392.5,676.5,-20.75,-926.25,74.0,7
998.5,195.75,-162.75,494.0,556.0,-818.5,-1026.25,396.75,7
539.5,-300.75,-234.5,923.25,255.75,-1019.25,-1316.5,1026.0,7
-262.75,-362.0,-492.25,1360.5,-187.75,-1258.75,-1644.75,1099.25,7
-733.5,-225.25,-860.5,1307.5,-372.75,-1224.0,-1372.75,1223.25,7
-944.0,-247.5,-737.25,1299.75,-34.5,-447.75,-1067.5,1389.5,7
-980.25,-246.75,-563.75,1630.75,142.25,-673.0,-899.75,1419.25,7
-800.5,-215.5,-563.5,1528.25,-31.5,-894.75,-504.75,1468.5,7
-532.5,-185.75,-400.25,1424.25,348.25,-763.25,-146.0,1304.75,7
-367.5,-40.0,-308.5,1266.25,-49.0,-896.25,229.75,1300.75,7
-129.0,-88.75,-182.0,305.5,-393.25,-685.75,595.5,1268.0,7
-105.75,-68.75,14.25,-179.0,-1087.5,-688.25,847.5,741.5,7
-315.0,43.25,35.0,-241.0,-2692.25,-753.5,933.25,146.75,7
-292.75,429.5,-584.5,-1103.75,-2762.75,-763.25,927.75,180.25,7
-162.5,228.25,-882.25,-1110.5,-2782.5,-713.25,961.75,280.25,7
-432.75,-78.25,-741.75,-473.5,-2798.5,-756.5,978.25,239.0,7
-231.25,-46.25,-830.5,-331.0,-2278.25,-915.5,898.0,204.75,7
-15.75,-30.0,89.75,-192.25,-1933.25,-867.25,529.25,598.75,7
8.25,91.5,1104.25,-183.5,-1660.0,-725.75,4.25,888.0,7
326.0,188.0,1102.25,-8.5,-1153.75,-659.0,-330.5,1030.5,7
497.75,244.75,1079.75,-72.75,-730.75,-646.75,-305.75,931.25,7
515.75,210.0,1087.5,-128.0,-512.5,-487.5,459.25,888.0,7
-209.75,295.5,1095.0,-137.25,-558.0,-256.5,1117.25,746.0,7
-678.75,282.5,845.25,-159.75,-940.0,-123.0,1157.25,637.5,7
-81.5,339.5,415.75,-161.0,-972.5,-60.25,1157.5,463.5,7
277.75,323.75,58.5,-330.5,-659.0,1.0,1155.75,402.75,7
475.5,176.25,-239.0,-302.75,-66.75,21.75,1098.0,456.0,7
369.75,59.0,-428.5,-218.0,477.75,-28.5,420.5,552.25,7
-266.25,-71.75,-666.75,-129.0,845.5,-202.25,-11.5,717.25,7
-288.25,-46.25,-872.5,-89.75,1413.75,-440.0,-477.25,803.0,7
-115.0,44.5,-722.0,-261.75,1308.75,-750.5,-570.75,695.5,7
434.5,385.0,-23.5,-657.75,1023.5,-1163.5,-55.75,254.25,7
1121.75,652.0,566.5,-936.25,985.5,-1216.25,338.75,324.25,7
1300.75,558.0,976.0,-912.75,1017.25,-1189.5,457.25,416.75,7
900.75,772.0,847.25,-680.75,1035.5,-1149.0,536.75,448.25,7
460.75,1017.0,865.0,-481.5,1053.0,-964.75,215.25,723.25,7
470.25,745.25,563.5,-291.0,1217.0,-613.5,-50.25,942.0,7
705.25,370.75,326.75,-394.5,1319.5,-354.5,-34.5,1051.75,7
599.75,-81.75,3.25,-523.25,1391.0,-33.0,-167.0,1098.5,7
628.5,-46.5,-229.0,-611.25,1315.5,180.75,-222.75,1061.5,7
592.25,-184.25,-593.0,-736.5,1149.0,406.0,-424.5,1187.5,7
416.0,-554.5,-930.25,-866.0,1348.25,575.5,-541.75,1250.25,7
589.5,-646.25,-889.25,-917.0,1269.0,645.75,-702.5,1167.5,7
262.0,-1064.0,-1383.5,-591.0,844.75,866.75,-1012.0,1258.75,7
-397.5,-1539.5,-1838.5,358.25,880.0,1400.75,-1442.75,1712.25,7
-1285.75,-1909.0,-1715.75,491.5,916.25,1381.75,-1390.5,1532.25,7
-1296.0,-1672.75,-1200.25,603.0,461.75,1007.25,-1186.5,1278.25,7
-1110.5,-1443.25,-295.0,850.75,-301.25,749.5,-1202.25,1117.25,7
-1208.5,-1317.75,358.75,787.75,-702.75,356.5,-984.5,744.0,7
-737.5,-608.75,380.5,633.0,-490.5,21.75,-866.25,543.5,7
-684.0,-271.0,393.0,628.25,-846.5,-232.25,-698.25,384.0,7
-575.0,160.75,0.5,381.75,-1220.5,-494.75,-577.75,186.5,7
-418.25,318.25,-468.25,285.0,-1280.25,-655.25,-447.0,-26.75,7
-363.0,348.5,-595.5,161.75,-899.25,-744.75,-351.0,-234.5,7
-187.75,142.75,-561.25,161.75,-498.0,-720.0,-357.25,-268.75,7
-162.75,164.5,-471.5,138.0,-360.0,-678.0,-274.75,-151.5,7
-230.0,77.25,-452.25,459.25,102.5,-550.5,-266.0,169.25,7
-433.75,-35.0,-238.75,581.25,-33.75,-559.5,-75.0,189.75,7
-366.5,16.0,183.75,495.25,-204.75,-551.75,198.0,132.0,7
-431.5,25.0,562.25,587.25,-374.25,-512.75,413.0,-6.5,7
-399.0,140.75,786.75,452.0,-582.75,-497.75,440.0,-112.25,7
-417.25,-45.75,1093.0,403.25,-574.25,-440.75,293.5,-159.25,7
-325.0,157.0,1202.0,349.75,-598.0,-507.25,86.5,-226.75,7
-148.5,389.0,1177.75,300.5,-564.5,-569.5,-104.0,-229.5,7
-132.0,486.75,1096.75,266.25,-525.25,-545.5,-301.75,-269.0,7
1.5,613.5,932.0,214.0,-458.0,-351.5,-331.75,-300.25,7
40.0,607.5,786.5,146.5,-369.5,47.75,-234.0,-413.0,7
87.0,670.25,512.75,46.25,-179.25,570.5,-298.25,-454.0,7
65.75,616.25,256.25,-22.5,-49.0,1011.5,-370.0,-447.75,7
74.75,392.75,23.25,-184.25,-27.25,1228.75,-180.25,-435.5,7
123.0,29.0,-181.0,-280.5,59.0,1375.5,230.25,-415.25,7
128.75,-381.0,-501.5,-384.75,160.0,1560.75,425.0,-405.5,7
149.75,-495.0,-740.25,-520.5,272.5,1555.75,716.25,-485.75,7
196.25,-264.0,-709.5,-592.25,525.75,1493.25,1068.5,-570.25,7
132.0,-110.75,-693.0,-323.5,1151.25,1589.25,1009.25,-486.5,7
-24.25,48.0,-588.0,60.0,1442.5,1479.25,981.75,-452.75,7
-129.0,218.0,-525.25,199.0,1296.75,1331.75,1047.0,-475.75,7
-298.5,153.5,-635.75,294.25,1374.25,1280.75,834.0,-519.5,7
-346.25,89.75,-507.0,136.5,1230.0,1077.25,624.75,-574.0,7
-320.5,-47.5,-504.0,24.75,1170.5,839.25,428.0,-552.25,7
-276.25,-114.5,-555.75,-135.0,987.25,666.75,388.0,-543.0,7
-157.75,-126.25,-588.5,-283.25,872.25,550.75,589.75,-635.75,7
-55.25,-188.5,-597.75,-272.25,872.0,447.25,839.75,-753.75,7
66.0,-153.75,-19.0,-404.25,826.0,426.0,1142.5,-826.5,7
75.75,-86.0,596.0,-481.25,920.5,343.25,1166.75,-759.75,7
-215.5,-86.5,736.75,-432.25,995.25,331.25,1210.0,-678.75,7
-412.5,-95.5,760.25,-195.75,950.25,477.25,1113.25,-654.75,7
-285.25,98.25,462.5,-58.75,347.25,453.5,720.5,-660.0,7
-77.25,438.0,135.0,-42.5,-547.0,593.0,200.0,-676.5,7
203.0,868.75,-221.75,-150.5,-870.5,697.75,159.5,-785.25,7
368.75,894.25,-315.25,-259.25,-772.25,603.25,462.0,-958.0,7
486.25,480.25,-210.5,-61.0,-759.0,546.25,830.5,-1018.75,7
586.5,67.0,-262.0,40.25,-830.25,528.25,894.25,-1078.25,7
595.75,-148.25,-57.75,-68.0,-746.0,629.25,489.25,-1075.25,7
530.25,-242.25,-205.0,-100.75,-730.25,614.75,380.25,-996.5,7
409.0,-709.0,-281.25,-146.75,-825.25,547.25,303.5,-865.75,7
276.75,-999.75,-67.0,-202.25,-926.25,524.25,52.75,-722.5,7
-109.5,-996.25,594.25,-297.75,-1166.5,605.5,-134.5,-565.75,7
-690.25,-876.25,1798.75,-434.0,-1367.5,672.0,-125.5,-611.5,7
-764.5,-217.5,2029.5,-700.75,-1582.5,387.0,121.75,-983.75,7
15.5,478.5,2221.75,-1322.75,-1739.5,-10.5,480.0,-1337.25,7
692.5,693.25,1849.5,-837.5,-933.0,88.5,180.0,-1220.5,7
257.25,-453.75,791.5,749.0,-238.5,778.5,-732.0,-555.75,7
-146.0,-561.25,69.5,1027.5,-8.5,407.25,-520.5,-540.75,7
457.75,-316.5,58.0,826.5,-183.5,104.0,-339.0,-489.0,7
459.5,-458.25,-615.5,919.5,-709.75,301.0,-315.75,-445.25,7
700.25,74.75,-1320.5,46.75,-1518.0,82.0,-672.25,-541.25,7
1155.25,243.5,-1486.0,-120.0,-948.25,288.5,-1112.0,-185.25,7
1093.5,103.75,-1461.25,-81.0,-386.75,174.75,-996.75,-145.5,7
1199.75,287.25,-1268.5,-340.0,-431.25,171.5,-983.75,17.0,7
1157.0,257.0,-1218.5,-455.75,-589.0,74.75,-557.0,51.25,7
784.75,365.25,-384.25,-412.75,-212.0,31.25,-116.0,123.5,7
183.0,325.5,209.75,-304.5,351.0,-40.25,423.25,93.25,7
87.25,538.75,632.75,-411.5,613.0,-232.75,690.0,-1.75,7
-259.75,424.5,789.25,-160.75,858.5,-212.75,386.0,-102.25,7
-856.0,292.5,757.5,19.25,939.5,-489.5,-115.0,-343.75,7
-881.0,236.25,685.25,-4.5,1030.25,-643.25,-355.25,-398.0,7
-901.5,219.25,545.5,-15.75,992.0,-966.25,-89.25,-150.25,7
-736.5,219.5,436.75,-63.5,932.75,-1201.5,259.5,540.25,7
-551.75,167.0,182.5,-79.5,974.25,-1072.5,832.5,908.75,7
-311.0,151.0,-59.25,-62.75,632.0,-616.5,1254.25,1102.0,7
-68.75,111.75,-404.75,-61.75,206.75,103.75,1470.75,1297.5,7
123.0,154.0,-501.25,-115.5,-262.5,517.0,1046.75,1297.75,7
332.75,143.0,-582.0,-141.5,-455.25,422.0,657.5,1234.25,7
609.25,200.75,-417.0,-177.5,-500.25,-36.5,570.5,1082.25,7
826.0,265.5,-254.0,-224.0,-135.75,-624.0,131.25,913.75,7
914.5,263.75,-262.75,-229.5,470.25,-946.0,-80.75,714.75,7
888.0,297.5,-197.5,-307.25,554.25,-1008.75,-114.0,604.0,7
624.75,231.75,-511.0,-175.25,708.75,-997.0,-22.0,571.75,7
325.0,97.75,-665.75,-39.75,678.75,-721.75,392.0,533.5,7
49.75,92.75,-563.25,-91.75,517.75,-312.0,971.5,474.25,7
-161.5,46.5,-287.5,79.5,434.0,234.5,1223.0,480.0,7
-236.75,-3.25,205.0,187.5,22.0,354.0,1118.75,421.25,7
-314.5,22.0,544.75,166.75,-69.0,50.5,845.25,430.5,7
-410.25,-78.5,843.25,270.25,549.75,-45.0,278.75,536.25,7
-694.25,-159.5,967.25,206.5,770.25,-160.0,-386.5,554.0,7
-1101.5,-237.0,744.75,161.0,811.5,-317.0,-1150.5,599.25,7
-1145.75,-284.5,456.5,152.25,681.0,-529.0,-1699.0,466.5,7
-1118.0,-199.5,266.5,161.25,613.0,-398.5,-1483.75,396.0,7
-1201.75,-332.25,58.25,360.75,366.25,-87.25,-1151.25,363.0,7
-1190.5,-368.0,-284.75,298.5,-131.0,-53.0,-1280.25,255.5,7
-1073.25,-281.0,-445.75,200.75,-369.75,238.0,-1738.5,305.25,7
-856.75,-179.25,-436.75,-83.5,-665.5,152.0,-1842.5,290.5,7
-360.25,-3.5,-433.75,-122.0,-1058.75,-557.5,-1551.75,109.0,7
72.0,-132.75,-321.25,336.75,-1194.25,-804.25,-1152.75,60.75,7
558.0,-61.75,-237.5,34.5,-1322.5,-1021.5,-621.75,38.25,7
761.5,-2.0,-138.75,131.25,-1365.0,-1049.25,-668.0,-139.25,7
751.25,-133.0,-12.75,205.5,-1153.5,-931.25,-513.25,-16.25,7
795.0,16.0,20.5,-141.75,-946.0,-882.75,-545.25,-55.5,7
868.75,66.0,57.75,56.75,-564.5,-902.0,-888.0,-13.75,7
915.0,135.5,-6.25,-72.75,33.75,-769.5,-756.75,163.0,7
778.0,146.25,-77.75,24.5,620.25,-765.75,-802.25,189.5,7
479.5,143.5,-150.5,-48.5,1103.5,625.5,-647.5,420.75,7
380.25,121.25,-166.25,62.0,1199.75,1313.75,-568.25,591.0,7
247.5,105.5,-143.25,265.0,1249.25,1320.75,-510.0,807.0,7
190.0,180.75,-247.0,315.75,1528.75,1291.5,-558.75,918.25,7
31.25,128.75,-367.25,430.5,1572.5,1233.5,-737.5,942.25,7
-55.25,166.0,-471.75,244.5,1501.75,1257.25,-604.5,895.75,7
-14.5,184.0,-531.75,185.5,1655.0,1303.5,-525.5,733.0,7
68.0,223.5,-478.25,62.75,1692.75,1328.25,-454.75,387.25,7
72.75,239.75,-387.5,108.75,1571.5,1263.5,-429.0,-242.5,7
-77.25,213.75,-262.25,22.0,1538.75,795.25,-456.25,-1050.0,7
-231.0,286.75,-36.25,-274.5,1466.25,537.0,-496.0,-1078.5,7
-201.0,282.5,290.25,-640.25,1372.5,349.5,-446.25,-1080.0,7
-166.5,213.0,449.75,-855.0,1288.0,218.25,-592.25,-1081.75,7
-340.75,164.5,561.5,-667.75,1395.25,169.75,-950.5,-1047.5,7
-536.0,34.25,685.5,-502.25,1466.0,238.75,-908.5,-1048.75,7
-488.75,-141.75,619.75,-389.5,1467.0,368.0,-729.25,-1045.5,7
-412.5,-231.25,521.25,-339.75,1633.0,232.0,-760.75,-891.25,7
-344.0,-302.0,556.25,-398.0,1656.75,264.0,-685.5,-656.0,7
-243.25,-370.75,712.0,-185.25,1771.75,362.25,-562.75,-425.75,7
-322.25,-383.75,628.5,230.0,1607.25,325.25,-510.25,-187.25,7
-499.0,-324.25,463.5,279.75,1045.75,184.75,-455.0,17.25,7
-742.5,-337.25,295.0,284.0,755.75,76.0,-149.5,156.5,7
-1013.75,-306.25,-63.5,310.0,553.75,-17.75,161.75,160.5,7
-1134.5,-230.5,-365.75,220.5,491.25,-151.75,92.25,45.0,7
-1147.5,-246.5,-394.5,169.25,398.0,-53.0,3.25,-114.75,7
-708.25,-209.75,-448.0,56.5,-126.5,-169.75,60.0,-324.5,7
-411.0,-188.75,-698.5,48.25,-540.25,-413.75,171.75,-604.0,7
-50.5,-126.25,-966.5,-26.0,-945.25,-385.75,18.5,-810.0,7
296.0,-88.5,-1050.0,-5.25,-1256.75,-106.0,-47.25,-850.75,7
800.0,-78.75,-1062.25,125.0,-1408.25,402.75,91.5,-683.25,7
993.5,-41.5,-643.25,131.25,-1458.75,810.5,173.5,-557.75,7
1013.5,-40.75,-19.25,204.0,-1195.25,1312.75,160.0,-587.5,7
1052.25,-8.5,482.25,260.25,-778.75,1383.5,41.25,-695.5,7
1059.0,67.5,692.75,178.0,-692.5,968.0,-34.5,-597.75,7
1027.5,150.75,770.25,-15.75,-844.5,700.0,-52.25,-266.5,7
1031.0,229.0,733.25,-231.75,-808.0,321.5,139.0,68.75,7
577.5,278.5,257.25,-250.25,-863.75,-123.5,218.75,304.75,7
136.25,301.25,-113.25,-96.25,-1110.75,-223.0,386.0,368.75,7
-305.0,292.0,117.5,62.75,-1150.75,-303.0,656.25,487.25,7
-759.5,264.25,187.75,201.0,-1081.5,-349.5,759.75,468.75,7
-721.5,212.25,209.5,241.0,-1196.5,-470.75,721.5,263.5,7
-552.25,149.75,381.25,282.25,-1291.5,-495.25,606.75,115.75,7
-455.5,82.5,387.5,301.75,-1478.25,-421.25,575.75,48.5,7
-283.25,54.5,263.25,214.75,-1590.25,-517.75,500.5,-4.0,7
-407.75,71.5,97.5,151.75,-1261.5,-527.75,480.0,-52.5,7
-538.0,73.5,76.75,84.25,-609.5,-508.0,504.25,86.5,7
-651.75,55.75,149.75,29.5,-381.75,-436.5,534.5,103.0,7
-645.5,21.5,292.75,-51.75,-670.0,-380.0,495.75,-21.25,7
-527.25,15.75,163.5,-114.0,-964.5,-263.0,565.0,-47.75,7
-336.75,-5.5,-74.5,-150.0,-979.25,-88.5,712.0,-27.0,7
-269.5,-35.5,-359.5,-183.75,-662.25,39.0,837.0,79.0,7
-272.75,-15.5,-582.0,-256.0,-45.0,122.75,964.5,219.25,7
-43.25,39.5,-524.25,-389.25,708.5,89.0,1013.5,371.75,7
245.5,57.0,-453.5,-426.75,1257.5,34.25,928.75,416.25,7
520.5,29.5,-271.0,-340.5,1354.25,-154.75,791.25,423.0,7
493.75,-55.0,-113.0,-153.25,1386.5,-415.5,617.75,485.25,7
390.25,-80.5,65.5,-52.0,1352.25,-650.5,525.0,527.75,7
393.0,-50.0,204.0,-52.75,1364.5,-864.0,667.5,464.0,7
261.5,-57.0,295.25,-46.5,1352.25,-977.0,851.5,359.0,7
98.0,-49.0,449.5,-6.75,1359.25,-1007.75,992.75,276.0,7
-73.5,-109.75,377.75,-18.75,1290.0,-1002.25,1035.25,130.0,7
-387.75,-82.5,221.5,-265.5,1071.0,-1018.5,733.75,-23.25,7
-532.0,-6.25,103.5,-334.75,879.25,-1061.0,365.25,-33.75,7
-459.25,-8.5,41.0,-289.0,845.75,-1046.5,274.25,0.0,7
-299.5,-9.5,-119.25,-304.0,860.0,-1003.5,303.75,-61.25,7
-200.0,-32.75,-484.75,-176.25,1048.5,-994.25,605.5,-37.25,7
-230.75,-72.25,-840.75,-86.5,1185.25,-989.25,905.25,15.25,7
-132.25,-44.75,-834.0,-162.75,1076.0,-955.5,867.0,38.0,7
-107.0,-27.0,-662.25,-78.75,862.5,-827.75,673.75,82.25,7
-130.0,-118.5,-687.0,118.25,591.25,-699.25,539.5,79.75,7
-18.0,-143.0,-664.75,94.25,404.5,-497.5,471.75,115.25,7
58.5,-74.75,-473.75,-40.0,473.5,-299.0,337.5,162.0,7
177.5,3.75,-219.75,-77.0,366.5,-164.5,196.0,162.75,7
188.0,45.0,-22.75,46.0,151.0,-175.75,76.25,149.0,7
117.75,50.75,206.75,113.75,-173.5,-417.5,42.0,124.0,7
74.5,45.75,387.25,112.25,-324.0,-802.75,-43.25,137.0,7
-19.0,10.25,397.0,172.0,-250.25,-1122.75,-115.25,143.25,7
-307.75,-40.75,288.75,209.5,-470.75,-1132.25,-153.0,108.5,7
-545.0,-55.75,222.25,189.75,-693.5,-1145.0,-239.75,73.75,7
-438.25,-77.75,194.5,145.5,-988.75,-1131.5,-378.5,36.5,7
-366.5,-108.25,102.0,47.5,-1405.5,-1145.5,-534.5,41.25,7
-147.0,-88.75,70.25,-131.0,-1387.0,-992.25,-538.75,38.5,7
221.0,-74.5,71.0,-257.75,-1187.0,-465.0,-452.25,54.0,7
362.25,-90.5,195.75,-130.5,-894.5,76.5,-405.25,27.75,7
501.5,-104.5,182.25,-31.75,-819.0,617.0,-303.75,-81.75,7
415.0,-46.5,99.0,-165.25,-894.75,818.25,-253.75,-150.0,7
-6.75,-0.75,142.75,-223.25,-730.0,820.75,-209.75,-161.25,7
-322.5,-1.0,101.5,-246.0,-755.0,825.75,-133.75,-160.5,7
-415.75,70.25,96.5,-253.0,-876.25,845.0,-123.75,-151.75,7
-455.5,73.25,94.25,-86.25,-928.75,879.5,-69.5,-119.0,7
-322.5,-23.25,180.0,86.25,-946.5,888.0,14.25,-105.0,7
44.75,-41.25,201.0,84.75,-1099.75,907.25,22.5,-203.25,7
310.75,51.25,125.0,18.0,-1197.0,938.5,-85.0,-388.0,7
460.75,103.0,27.75,58.5,-1160.25,999.25,-181.25,-388.5,7
465.75,68.25,-90.5,189.0,-992.0,1027.75,-256.75,-162.0,7
411.5,7.0,-126.25,298.25,-774.0,1006.75,-282.5,103.5,7
233.0,-95.25,-135.75,408.0,-767.75,961.5,-200.5,289.75,7
-96.25,-160.0,-36.75,405.75,-649.5,910.25,-24.0,405.25,7
-162.75,-143.0,17.75,311.75,-566.5,888.0,100.0,451.0,7
-199.5,-95.0,-36.5,267.25,-587.25,295.5,92.75,486.5,7
-266.25,-13.0,-45.0,156.5,-704.0,-475.25,209.0,623.75,7
-204.25,14.0,1.25,20.0,-926.25,-1018.0,379.5,749.5,7
-87.75,10.25,23.25,-42.5,-936.0,-936.5,524.5,790.75,7
18.75,-7.0,15.25,-27.25,-837.75,-810.75,626.25,650.0,7
121.0,-0.5,-4.0,-88.0,-927.0,-764.75,763.25,482.5,7
-54.75,43.0,52.75,-180.75,-866.25,-752.25,883.5,498.5,7
-499.5,119.75,157.5,-300.5,-584.25,-723.25,964.0,494.75,7
-236.0,200.5,165.5,-394.25,-415.75,-789.5,1142.5,381.75,7
501.0,406.5,421.75,-683.75,-571.25,-911.25,1436.25,121.5,7
837.25,708.0,670.75,-732.75,-641.5,-1127.75,1629.5,-131.25,7
1157.0,658.75,637.5,-551.75,-680.25,-1406.0,1786.25,-250.25,7
1447.75,590.75,572.25,-503.5,-781.5,-1534.0,1755.0,-343.75,7
1255.25,579.25,615.25,-433.0,-859.0,-1348.75,1624.5,-224.25,7
643.25,503.0,892.25,-353.25,-714.25,-1067.25,1507.75,-148.75,7
-171.0,352.5,760.5,-304.0,-276.0,-715.25,1267.0,-128.0,7
-684.25,207.75,663.0,-164.75,173.25,-246.5,1066.0,-134.25,7
-1078.5,99.5,437.0,-77.75,318.25,180.75,935.5,-302.75,7
-1252.0,11.25,-58.75,23.5,206.75,709.25,824.5,-456.25,7
-1275.5,-36.0,-331.75,136.25,40.75,1080.25,755.0,-612.75,7
-1249.5,-20.5,-507.0,302.5,-37.5,955.0,532.0,-848.25,7
-1013.5,-66.25,-574.25,384.5,16.5,889.75,325.75,-964.5,7
-892.0,-199.0,-664.75,389.0,302.25,887.75,86.5,-940.0,7
-675.75,-308.0,-636.5,353.25,581.25,916.75,-113.5,-910.5,7
-416.25,-255.75,-495.75,342.5,773.0,945.75,-280.5,-833.25,7
-180.25,-235.5,-393.0,323.25,807.0,1034.5,-440.5,-791.5,7
87.0,-289.0,-369.25,255.5,961.75,1241.0,-541.5,-750.75,7
139.5,-330.25,-437.25,218.75,1129.0,1351.25,-650.75,-566.25,7
92.25,-311.75,-408.25,230.75,1164.75,1370.75,-760.25,-213.5,7
-51.25,-283.0,-356.0,222.75,1113.25,1327.25,-797.75,183.25,7
-82.75,-260.75,-362.5,252.5,1145.0,1123.0,-773.75,512.75,7
127.25,-246.75,-368.0,371.75,1257.0,1081.5,-813.75,695.75,7
339.0,-298.5,-312.25,402.75,1123.0,1167.5,-921.5,691.0,7
523.5,-339.0,-237.25,375.25,1144.75,1216.5,-1058.5,494.0,7
641.0,-362.5,-189.5,360.25,1121.75,1300.0,-1182.75,421.25,7
653.5,-335.5,-196.0,312.75,873.75,1278.25,-1311.5,483.75,7
473.0,-350.5,-215.0,236.0,725.0,1089.5,-1352.0,625.5,7
265.25,-354.5,-202.0,153.0,673.5,877.25,-1270.25,788.0,7
190.0,-232.5,-195.25,103.0,860.75,898.25,-1085.0,943.75,7
73.75,-124.5,-224.0,62.75,1194.75,939.5,-854.5,988.75,7
88.0,-84.75,-227.75,3.0,1886.25,876.0,-906.25,753.25,7
128.0,-51.75,-205.5,16.75,1857.5,953.5,-979.25,542.0,7
59.5,-31.5,-252.0,55.0,1912.25,859.75,-967.75,450.25,7
63.0,-53.0,-315.5,65.0,1128.0,801.0,-1038.75,447.25,7
90.0,-117.5,-210.5,142.5,1058.0,1158.25,-1039.75,471.75,7
158.0,-175.25,20.75,178.25,383.5,1222.5,-993.75,527.5,7
252.5,-135.5,179.5,67.5,-80.0,366.5,-897.0,530.25,7
228.5,-141.0,153.25,-96.0,-75.0,-736.0,-836.0,526.5,7
-59.0,-177.5,63.5,-191.75,-79.5,-1062.0,-768.25,575.75,7
-267.75,-94.5,138.75,-276.5,-215.5,-902.25,-823.25,560.75,7
-399.5,-26.75,263.75,-299.75,-200.25,-781.5,-782.0,630.0,7
-778.0,-119.75,253.5,-176.75,138.0,-667.25,-714.0,763.25,7
-907.0,-311.0,295.0,-110.25,337.75,-639.0,-592.25,923.75,7
-734.25,-460.5,484.75,-53.5,627.0,-703.5,-511.25,1092.0,7
-586.5,-423.75,528.25,78.75,336.75,-721.5,-580.25,993.0,7
