0,1,2,3,4,5,6,7,label
-635.75,149.25,481.5,-477.5,119.25,541.75,988.5,-969.0,8
-412.75,133.0,279.75,-325.5,-262.5,989.75,1089.75,-995.0,8
-254.75,247.5,47.5,-286.5,-86.5,1694.0,916.0,-398.5,8
-709.25,175.25,-72.0,-190.0,-266.25,1899.25,586.25,-54.0,8
-742.75,272.75,-232.75,-147.25,-59.5,1114.25,293.0,70.25,8
-705.5,60.0,-244.0,-20.25,139.5,266.0,0.25,-8.5,8
-603.25,-197.25,-202.25,34.75,190.25,-453.25,-230.5,179.5,8
-704.25,-1003.5,-70.25,460.75,384.5,-216.75,-459.25,525.25,8
-989.0,-1101.25,3.5,959.75,514.0,192.75,-608.0,-149.5,8
-891.0,-926.5,-151.0,758.5,581.25,439.75,-344.5,-911.75,8
-894.5,-1030.25,-150.75,426.0,208.75,534.25,-75.75,-1214.75,8
-873.0,-970.5,-58.25,426.25,111.0,562.75,-16.25,-1635.0,8
-744.75,-841.5,10.25,212.5,-167.0,623.0,86.0,-1448.0,8
-407.0,-653.5,197.0,-1.25,-686.25,853.25,-11.5,-1135.75,8
234.25,-465.25,211.5,-63.0,-898.0,806.75,-175.0,-873.25,8
506.5,-326.0,235.25,-15.25,-888.5,489.5,-301.75,-1143.5,8
468.75,-177.25,139.5,70.25,-789.5,137.25,-511.0,-1559.75,8
426.5,-119.25,-54.0,0.0,-922.75,-228.25,-775.0,-1698.25,8
443.5,-7.0,-37.25,-85.25,-722.0,-428.5,-996.5,-1913.75,8
629.0,57.0,-67.25,-225.0,-648.75,-261.25,-1240.75,-1860.0,8
531.5,164.75,-150.25,-279.75,-601.5,-7.75,-1200.75,-1540.0,8
452.0,160.75,-211.75,-339.75,-652.25,150.75,-993.0,-1116.75,8
628.25,196.25,-318.0,-307.5,-773.5,414.5,-922.0,-967.25,8
384.75,227.75,-428.5,-275.0,-959.75,494.5,-916.75,-1038.5,8
188.75,296.5,-450.5,-207.0,-920.0,585.0,-925.25,-1167.0,8
326.75,332.25,-284.0,-184.25,-356.75,807.25,-906.75,-1296.5,8
305.5,278.75,-70.5,-189.75,-112.75,762.5,-1040.25,-1144.5,8
348.25,291.0,-174.0,-224.25,-208.75,540.75,-1122.25,-1021.75,8
325.5,294.5,-307.25,-312.0,-822.75,572.0,-1132.5,-982.75,8
124.25,340.25,-106.5,-229.25,-1005.5,726.25,-1115.75,-872.5,8
-143.25,349.5,193.0,-137.75,-623.0,776.75,-999.0,-698.5,8
-325.5,369.75,413.25,-106.75,-101.0,754.25,-927.5,-434.5,8
-136.25,396.0,337.0,-66.0,86.75,840.75,-801.75,-285.25,8
125.5,310.0,42.25,-49.5,-268.25,755.75,-674.25,-352.25,8
244.5,200.5,-352.25,1.75,-407.5,598.25,-459.25,-402.25,8
331.0,224.25,-486.5,67.5,-142.0,748.25,-469.5,6.5,8
134.75,215.75,-239.5,82.5,-31.75,1112.0,-584.5,198.0,8
-105.0,195.25,54.5,97.5,-467.25,1164.75,-577.25,163.5,8
-74.25,227.0,540.25,108.0,-375.75,918.0,-601.75,206.25,8
166.75,157.0,711.5,83.0,-353.5,615.5,-532.25,660.5,8
543.25,139.0,517.25,4.0,-344.75,384.5,-597.75,1285.5,8
463.75,116.75,381.25,-38.0,-93.25,558.75,-595.75,1940.5,8
369.25,113.75,302.75,-30.75,156.75,573.25,-513.5,2165.75,8
524.0,146.75,280.25,21.25,198.5,300.0,-556.25,2137.25,8
281.25,153.25,211.0,105.5,194.75,-193.0,-735.5,2046.5,8
-27.25,213.75,-23.5,124.5,74.5,-920.75,-824.5,1994.0,8
-63.0,242.5,-301.75,152.25,-24.25,-1461.0,-621.25,1907.5,8
22.75,323.5,-306.25,-45.75,-291.75,-1823.25,-507.0,1884.5,8
294.25,699.5,-237.25,-294.25,-607.25,-1934.75,-357.0,1754.0,8
205.25,633.5,-326.5,-368.75,-696.0,-1477.25,-239.75,1258.5,8
2.0,491.5,-543.0,-429.0,-694.25,-966.0,-286.25,711.0,8
166.5,567.0,-532.5,-490.0,-601.75,-683.75,-433.25,469.25,8
447.25,411.5,-341.75,-440.25,-292.25,-426.75,-414.25,527.75,8
715.25,317.5,-193.0,-357.0,-84.25,44.25,465.0,699.5,8
885.0,237.5,-337.0,-136.25,166.0,337.75,1466.0,891.75,8
290.5,172.0,-468.0,-67.5,-165.25,399.5,1582.5,1006.25,8
-328.25,183.5,-238.5,47.75,192.0,431.25,1525.75,772.75,8
-487.25,71.25,40.75,191.25,920.5,160.25,1305.25,497.5,8
-864.0,90.5,313.25,258.75,1202.0,346.0,1202.5,419.75,8
-1270.0,-138.25,407.0,340.75,1298.75,719.0,1179.5,474.0,8
-1361.75,-226.0,322.75,400.25,956.25,904.25,1117.25,338.25,8
-1424.5,-343.0,382.0,481.75,547.5,936.5,999.5,-14.75,8
455.75,-413.25,490.75,549.0,315.0,1106.75,907.0,-357.75,8
590.5,-398.25,459.75,672.0,558.5,1071.0,732.5,-660.0,8
489.5,-480.5,463.0,769.0,834.75,523.0,656.25,-861.5,8
156.0,-475.5,494.75,803.0,863.25,318.75,548.0,-1005.5,8
-124.75,-504.5,442.25,698.75,963.0,412.25,468.0,-1013.0,8
-541.75,-486.25,318.25,553.75,706.5,626.5,479.75,-631.0,8
-401.75,-523.0,269.25,406.5,265.0,1009.75,531.5,-365.5,8
149.75,-487.5,133.0,213.0,44.0,1341.25,587.0,-530.5,8
635.75,-425.25,-236.0,40.5,168.5,1529.25,758.0,-961.5,8
399.25,-320.75,-697.75,63.5,390.25,1907.5,961.75,-1371.75,8
-214.0,-269.75,-868.0,310.25,531.5,1679.0,908.5,-1304.0,8
-393.0,-323.25,-671.25,380.0,709.25,1204.25,973.0,-1346.75,8
-722.0,-331.5,-521.75,388.5,644.75,622.5,977.25,-1483.75,8
-960.5,-304.0,-294.5,398.75,477.5,399.5,663.25,-1625.0,8
-1185.5,-224.5,-67.25,355.0,241.5,741.75,-609.0,-1669.5,8
-1349.0,-259.75,108.75,294.0,86.0,968.5,-1056.0,-1567.25,8
-1176.25,-302.75,171.25,221.5,20.75,901.5,-1027.75,-1382.25,8
-372.0,-291.5,110.25,195.75,-25.75,686.75,-1037.0,-997.5,8
786.25,-282.25,33.25,126.5,11.5,657.5,-1020.25,-467.0,8
991.5,-318.0,-121.5,85.0,-44.25,846.0,-1026.0,-88.25,8
878.25,-502.5,-180.0,73.25,107.25,1217.5,-1020.75,769.5,8
809.5,-709.0,-295.0,77.5,304.5,1073.0,-1048.75,1698.5,8
373.5,-711.5,-229.25,99.0,313.5,468.75,-1101.75,2417.25,8
-371.25,-657.75,-350.0,154.5,347.75,-253.0,-1150.25,2446.5,8
-837.25,-585.0,-972.5,238.25,371.75,-340.25,-1187.25,2391.0,8
-1124.25,-521.0,-876.0,331.75,301.0,-400.5,-1235.25,2235.0,8
-1138.5,-484.25,-55.5,316.25,108.0,-462.25,-1309.5,2375.5,8
-1215.75,-456.0,510.0,261.75,113.0,-463.0,-1386.75,2364.25,8
-932.0,-430.5,1007.25,244.25,95.75,-409.25,-1501.0,2296.0,8
-332.5,-368.5,890.5,216.75,26.5,-376.5,-1763.25,2202.0,8
229.25,-304.25,645.75,217.25,54.75,-465.0,-1881.5,2104.0,8
407.25,-274.25,514.0,201.25,105.5,-611.75,-1732.0,2070.25,8
293.25,-160.25,-69.75,160.75,-39.5,-658.0,-1780.75,1993.0,8
387.5,-38.25,-292.5,137.0,-266.5,-829.5,-1781.75,1938.25,8
498.75,34.75,-187.75,36.0,-409.5,-848.0,-1831.0,1904.0,8
624.75,118.75,-1.5,-144.0,-715.75,-908.25,-1926.75,1857.5,8
369.5,182.25,-162.25,-325.25,-971.5,-919.5,-1829.5,1811.0,8
2.75,273.75,-318.25,-304.5,-1018.0,-556.25,-1802.0,1803.0,8
-220.5,359.75,-185.5,-289.75,-980.0,-531.0,-1582.0,1809.5,8
-462.25,347.0,-140.0,-638.0,-956.75,-1029.5,-1292.25,1839.0,8
-510.5,361.25,173.0,-787.75,-949.25,-1159.5,-974.5,1889.0,8
-470.5,395.25,431.5,-356.0,-1001.25,-1275.5,-607.25,1910.25,8
-301.5,447.5,296.25,-110.0,-858.25,-1384.75,-361.5,1969.25,8
-51.25,489.0,73.75,-298.25,-564.25,-1390.5,-146.0,1965.25,8
98.0,459.5,153.5,-454.0,-558.25,-1377.25,63.25,1863.5,8
114.25,449.0,340.25,-566.0,-639.5,-1338.75,216.25,1699.0,8
353.25,427.0,450.25,-749.0,-691.75,-1431.0,422.25,1554.5,8
761.0,678.5,436.25,-1116.75,-671.5,-1840.5,911.0,1212.0,8
576.0,823.25,184.75,-1243.25,-185.5,-1794.75,1207.75,734.75,8
213.0,686.5,-173.75,-1189.5,237.0,-1626.5,1378.5,271.5,8
-280.0,643.75,-264.75,-1047.75,350.0,-1661.25,1721.25,-367.5,8
-442.0,638.75,-348.75,-741.0,313.5,-1499.25,1607.0,-760.75,8
68.25,529.25,-622.5,-520.25,170.5,-933.0,1528.75,-1054.25,8
1347.0,534.5,-648.25,-338.75,162.25,-188.25,1475.25,-1093.0,8
1167.25,387.0,-440.0,-246.75,163.5,546.75,1412.75,-1040.75,8
1117.25,298.25,-142.0,-196.75,48.25,582.5,1381.25,-1125.75,8
1052.5,220.75,44.25,-153.75,46.75,746.75,1331.25,-1013.5,8
525.0,155.5,-86.0,-48.5,-98.5,820.75,1326.5,-928.25,8
102.75,87.75,-219.25,62.5,-78.0,847.75,1255.25,-510.75,8
-329.75,-1.5,-218.5,56.25,173.0,789.0,1239.75,-276.75,8
-394.75,-44.5,-290.75,203.0,689.5,839.75,1197.75,-148.5,8
-478.5,-142.25,-194.5,245.0,1195.0,1049.5,1157.25,187.75,8
-319.5,-227.25,-167.0,150.25,1609.5,1314.25,1112.25,68.0,8
144.5,-281.0,-330.75,88.75,1573.75,1452.5,1094.25,-156.0,8
146.5,-295.75,-303.0,485.0,1281.0,1626.75,981.25,-583.0,8
-816.5,-698.75,-33.5,932.0,1621.25,1966.75,819.0,-493.75,8
-990.0,-726.5,-55.0,901.0,1151.0,1808.25,1000.5,-526.25,8
-996.5,-597.25,-151.75,745.5,130.0,1557.75,1149.75,-733.0,8
-1220.5,-628.25,205.25,666.75,-50.0,1538.5,1288.25,-573.75,8
-987.25,-469.0,485.75,608.0,-137.0,1328.75,1464.5,-735.75,8
-788.5,-427.25,719.5,700.0,-89.25,1259.0,1513.75,-708.25,8
-630.75,-317.0,674.25,508.5,12.0,1079.5,1556.75,-742.0,8
-499.0,-187.75,551.5,564.25,-41.25,880.0,1528.25,-851.5,8
-553.0,-114.25,469.25,491.0,-327.5,693.75,1529.75,-1124.0,8
-265.75,37.5,306.5,349.25,-742.5,650.0,1511.75,-1140.5,8
-105.5,-79.25,295.25,406.75,-865.0,756.0,1529.75,-1029.0,8
-105.25,-12.75,187.25,294.25,-571.0,876.25,1480.5,-1154.25,8
-202.5,13.25,-110.75,102.5,-506.5,159.25,1331.5,-1241.75,8
-303.75,45.0,-395.75,-30.75,-565.75,-473.75,1043.75,-1298.25,8
-560.75,78.5,-251.25,-105.0,-414.75,-745.75,726.5,-1222.75,8
-617.0,129.75,-108.25,-241.75,-322.25,-1087.5,508.0,-1162.0,8
-558.0,161.25,88.0,-220.25,-641.25,-1263.5,241.25,-1143.0,8
-396.0,177.5,100.0,-300.0,-881.75,-1255.75,-2.25,-1198.75,8
-152.5,220.5,-65.5,-373.5,-600.0,-1174.75,-210.5,-1163.5,8
-55.0,189.75,-427.25,-504.5,-387.5,-1143.0,-479.25,-1153.75,8
243.25,215.5,-704.5,-578.5,-390.75,-1164.25,-783.5,-1185.5,8
540.25,286.25,-706.75,-665.5,-628.0,-1237.25,-1037.25,-1217.5,8
882.25,356.5,-553.75,-735.0,-678.5,-1362.5,-1256.5,-1222.0,8
984.5,440.75,-338.0,-771.75,-734.75,-1609.25,-1108.25,-1173.25,8
1143.5,706.25,74.0,-754.25,-635.25,-2034.0,-783.5,-1012.5,8
1011.25,631.75,214.75,-674.75,-401.75,-2052.0,-659.75,-675.75,8
603.0,540.75,925.75,-653.0,-382.0,-1906.5,-777.0,-769.0,8
148.75,519.0,1348.5,-620.25,-391.25,-1683.75,-652.75,-1062.75,8
24.0,357.25,1154.75,-355.75,90.75,-966.75,-812.5,-864.5,8
-145.25,-423.5,1093.25,566.25,670.75,27.0,-1598.25,-715.25,8
-826.75,-894.25,1001.5,854.25,913.25,42.0,-1605.75,-877.0,8
-800.25,-830.25,815.0,743.75,1009.5,-130.75,-1149.25,-846.0,8
-645.75,-844.25,606.0,866.75,854.75,-101.0,-1191.5,-845.75,8
-767.75,-917.0,383.5,700.0,476.5,-111.5,-986.5,-878.75,8
-273.0,-513.5,145.5,349.25,347.0,87.75,-790.5,-814.75,8
-248.25,-438.75,-113.75,85.75,-422.25,56.0,-351.25,-828.0,8
529.75,547.5,-578.0,-873.25,-1100.0,-351.5,395.25,-1096.0,8
775.25,732.5,-887.0,-889.5,-872.5,-64.25,470.75,-1384.75,8
688.0,604.25,-811.5,-833.25,-365.75,51.0,729.5,-1175.0,8
628.25,613.0,-1015.75,-870.25,-47.0,-350.0,222.0,-717.25,8
587.5,578.25,-1246.5,-736.5,462.0,-84.5,85.75,-353.25,8
501.25,330.75,-1303.5,-635.75,592.0,518.75,34.0,-69.0,8
423.5,266.25,-1227.75,-490.75,651.0,975.25,0.25,-222.25,8
226.0,196.75,-1027.75,-247.25,438.0,808.5,228.25,-8.25,8
138.25,280.75,-1146.25,-157.75,-105.5,231.75,-89.25,83.5,8
182.5,235.0,-586.5,-26.5,-229.0,-230.5,20.0,-50.5,8
172.0,185.25,661.0,-19.5,-191.0,-659.5,378.75,-183.5,8
12.5,196.0,763.0,85.75,1.75,-339.25,471.5,-24.0,8
-292.5,85.0,745.0,149.75,72.0,264.25,451.0,80.75,8
-154.5,39.5,768.75,176.75,-290.75,458.75,234.75,240.5,8
76.75,-61.75,866.25,250.0,-711.25,402.0,316.25,470.5,8
352.0,-96.75,976.0,166.5,-837.25,410.75,490.5,348.5,8
629.25,-172.5,853.0,-11.5,-437.75,434.25,229.25,332.75,8
895.5,-262.75,578.75,-8.75,663.0,292.0,-255.5,532.0,8
1037.0,-401.5,216.0,38.25,1409.0,208.75,-294.75,707.0,8
993.5,-428.25,-186.5,90.25,1393.0,106.25,-326.5,514.5,8
337.0,-503.25,-496.0,575.5,1103.75,233.75,-523.0,464.5,8
-641.5,-886.25,-139.75,743.25,668.5,239.25,-625.0,621.75,8
-680.0,-824.75,5.25,747.25,120.75,-116.5,-391.0,304.5,8
-795.5,-702.0,-195.25,762.75,-814.75,-327.0,-321.5,75.25,8
-1151.0,-722.0,-183.75,662.0,-1835.5,-322.25,-234.25,-30.5,8
-1033.5,-568.0,-169.5,581.0,-1966.75,-423.0,-113.75,-222.0,8
-864.5,-538.0,-80.0,529.25,-1671.0,-310.25,-76.75,-236.75,8
-758.25,-416.5,-169.75,341.25,-1704.75,-333.25,42.0,-346.75,8
-394.0,-312.25,-262.25,161.0,-2013.5,-389.5,570.0,-372.5,8
-271.0,-195.0,-221.25,-24.0,-2382.75,-520.5,1107.5,-438.5,8
-165.5,25.25,-275.0,-223.5,-2374.25,-742.5,1545.5,-531.75,8
-393.75,117.5,-201.75,-365.5,-1904.25,-854.0,1621.0,-583.25,8
-411.5,308.5,-225.25,-543.25,-1623.25,-994.25,1429.25,-724.5,8
-93.0,518.25,-272.75,-766.5,-1376.5,-1101.0,1327.0,-709.0,8
623.5,725.75,-270.75,-746.5,-819.5,-1159.5,1504.25,-716.0,8
970.25,935.5,-405.0,-729.5,194.75,-1376.75,1692.5,-694.0,8
552.5,1033.75,-483.25,-681.75,640.25,-1742.25,1842.0,-400.0,8
-209.5,1048.5,-448.5,-650.5,1200.25,-1897.75,1726.0,81.0,8
-426.0,979.25,-404.0,-583.5,2136.75,-2018.25,1511.0,491.75,8
-683.5,763.5,-301.25,-537.75,2770.75,-2150.5,1435.5,777.5,8
-849.5,452.25,-138.75,-548.0,3028.5,-1838.0,1172.0,848.5,8
190.0,309.25,-168.75,-424.25,2956.25,-1631.75,997.0,735.0,8
692.5,251.5,31.75,-246.0,2797.5,-1378.0,935.25,572.25,8
566.75,223.5,369.25,-69.25,2787.75,-1162.5,892.75,397.75,8
493.75,192.5,468.25,37.75,2829.75,-1033.25,806.5,404.5,8
612.5,171.0,497.0,90.75,2762.0,-1009.0,520.5,568.5,8
723.75,93.25,456.75,91.75,2551.0,-534.5,291.5,614.5,8
354.75,9.25,480.75,64.25,1644.0,4.75,279.75,618.0,8
312.25,-66.75,353.5,41.5,419.5,358.5,238.75,651.0,8
339.25,-165.25,197.75,11.5,341.5,635.5,0.5,757.75,8
208.25,-261.5,139.25,51.75,333.75,531.0,52.5,867.75,8
-102.75,-287.5,186.5,123.25,355.0,120.0,209.75,987.25,8
-311.75,-283.75,228.0,228.5,174.25,-156.0,285.75,1216.0,8
-667.0,-576.75,140.25,420.75,170.75,-23.0,136.5,1767.75,8
-1153.25,-854.5,448.25,894.75,153.5,48.0,-439.0,1970.0,8
-1270.0,-788.5,660.75,1007.0,-63.75,497.5,-711.25,1379.0,8
-997.0,-693.0,638.5,903.25,-384.75,915.5,-680.0,939.5,8
-817.25,-665.75,789.5,863.75,-276.0,1086.75,-688.0,652.75,8
-632.75,-535.75,713.25,795.25,192.0,1188.75,-871.5,251.5,8
-276.25,-493.75,508.25,645.25,578.25,1159.25,-1049.75,47.5,8
-256.5,-323.25,307.0,493.5,900.5,1194.5,-1287.25,-187.75,8
-160.5,-287.0,109.75,299.5,946.5,1206.75,-1361.75,-51.0,8
-232.5,-285.0,-74.75,297.75,613.25,1232.75,-1437.5,26.5,8
-161.0,-233.25,-256.0,217.75,236.0,1183.5,-1226.75,-28.0,8
-183.75,-157.75,-384.75,142.25,-435.25,1232.75,-871.5,-107.5,8
-160.75,-96.0,-536.75,-13.75,-534.0,1376.5,-706.25,-261.0,8
-111.25,-125.5,-575.0,-148.25,-555.0,1511.0,-417.25,-294.5,8
-132.5,-92.5,-503.0,-290.25,-513.25,1595.75,-249.25,-412.25,8
-49.25,-64.25,-508.5,-455.0,-450.75,1600.5,-253.25,-474.25,8
-51.25,-40.0,-530.75,-535.25,-432.5,1633.0,-358.5,-540.25,8
-30.5,-81.5,-443.0,-491.25,-412.5,1598.0,-328.0,-572.25,8
-101.25,-11.25,-393.75,-406.5,-546.75,1543.75,-308.5,-578.5,8
-125.75,55.75,-436.5,-380.5,-798.25,1491.75,-318.25,-540.5,8
-82.25,72.0,-369.0,-307.25,-671.0,1398.0,-313.75,-562.25,8
21.75,110.75,-267.25,-308.75,-1582.5,1269.75,-290.25,-570.25,8
133.0,123.5,-214.0,-301.75,-1757.75,1208.25,-204.75,-531.75,8
259.5,158.75,-120.5,-316.0,-614.5,1217.25,-238.75,-509.25,8
365.5,143.0,-47.0,-334.5,52.25,1231.5,-98.75,-495.25,8
405.25,186.5,-16.5,-366.75,28.0,1214.5,70.5,-519.0,8
371.0,197.0,-75.25,-307.75,-59.25,1238.25,296.25,-440.5,8
251.0,166.75,-154.5,-167.5,-176.25,1261.75,337.75,-443.25,8
170.75,172.0,-28.75,-109.0,-490.25,1159.5,154.5,-483.0,8
134.25,162.0,274.75,-105.75,-1000.5,1066.75,133.75,-501.5,8
187.75,167.0,451.25,-214.5,-1189.75,867.25,-69.25,-497.75,8
183.0,153.75,321.5,-224.5,-913.75,628.5,-347.25,-436.25,8
150.5,176.25,28.5,-248.0,-573.25,437.5,-558.5,-438.75,8
116.5,203.75,-161.75,-269.75,-484.0,258.0,-652.25,-487.25,8
2.25,173.0,-270.75,-239.5,-301.5,23.25,-687.0,-471.75,8
27.75,209.0,-328.5,-230.75,-21.75,-273.25,-662.25,-370.75,8
75.25,269.75,-281.5,-131.25,-65.0,-491.5,-561.75,-125.75,8
81.0,210.75,-286.75,-65.5,-197.0,-687.25,-425.25,164.5,8
150.25,149.75,-224.25,-59.25,-536.5,-905.5,-97.0,535.25,8
183.0,152.0,-96.0,-20.0,-725.75,-1106.0,-92.5,962.0,8
170.25,153.5,7.75,27.25,-1086.5,-1312.0,-18.25,1021.5,8
106.75,160.5,43.25,34.25,-1491.75,-1416.5,-22.5,1059.25,8
76.5,144.5,35.5,25.25,-1521.25,-1408.5,-330.0,1031.75,8
60.25,123.75,11.75,29.0,-887.75,-1349.75,-210.75,972.25,8
-59.25,95.75,9.25,38.5,17.5,-1458.5,-22.75,922.75,8
-80.75,62.75,-22.5,60.75,232.0,-1561.0,-335.75,876.75,8
50.0,19.75,-166.0,50.25,155.0,-1520.0,-432.75,846.25,8
145.5,-25.0,54.0,14.5,127.25,-1711.25,-104.5,870.0,8
202.5,-56.5,194.25,-17.5,172.25,-1843.0,-185.25,929.75,8
178.25,-119.75,250.5,-17.75,193.75,-1720.0,-481.0,910.25,8
1.75,-188.0,354.0,19.5,339.25,-1462.5,-615.5,516.25,8
-225.0,-211.0,268.75,38.5,967.0,-1184.0,-26.0,128.0,8
-324.25,-206.25,268.0,3.5,1502.75,-938.5,746.0,-288.75,8
-351.25,-231.25,182.25,7.0,1938.0,-804.5,957.75,-680.75,8
-451.25,-173.5,172.0,70.0,2029.0,-753.25,870.75,-813.5,8
-421.75,-69.5,192.25,89.75,2071.25,-870.0,487.25,-850.5,8
-328.25,-54.75,221.5,130.75,2134.0,-412.75,203.75,-887.5,8
-211.25,-5.0,127.25,80.0,2148.5,-38.0,402.25,-870.5,8
87.5,221.75,-6.0,-373.75,1897.25,-592.5,867.25,-960.75,8
771.75,670.0,9.5,-576.25,1761.5,-869.0,976.0,-1246.5,8
944.25,637.75,-226.0,-530.5,1354.75,-683.25,1126.75,-1583.0,8
947.75,510.5,-288.25,-605.25,312.75,-125.5,1466.75,-1677.0,8
1083.75,545.0,-192.25,-584.25,-541.5,261.5,1617.5,-1707.25,8
1052.75,494.25,-259.75,-355.25,-582.5,291.5,1336.5,-1517.5,8
1077.25,461.0,-271.0,-243.25,-767.75,223.5,1126.75,-1219.0,8
681.25,351.5,-284.0,-42.25,-663.25,272.75,799.5,-1028.25,8
157.0,201.25,-237.0,84.25,-615.0,290.0,649.5,-857.75,8
-252.0,178.25,-241.5,260.0,-452.5,623.0,704.5,-679.25,8
-610.25,92.5,-268.75,345.75,-406.25,920.0,854.0,-552.25,8
-507.0,71.5,-181.5,399.5,-358.25,690.75,828.0,-477.5,8
-521.5,16.5,-30.5,401.75,-273.75,1016.0,774.5,-429.0,8
-468.0,52.75,207.75,415.0,-260.5,1576.0,848.5,-411.5,8
-389.5,-60.5,399.75,362.5,-219.25,1661.75,727.5,-395.5,8
-403.5,-131.75,489.75,170.75,-206.75,1241.5,647.5,-350.75,8
-324.5,-162.5,503.5,170.25,-155.75,719.25,647.0,-297.0,8
-292.5,-239.5,494.5,283.5,-153.25,191.5,606.0,-244.0,8
-291.0,-286.5,405.5,377.25,-108.5,-126.5,592.25,-273.5,8
-322.5,-355.25,259.25,397.0,-93.0,-315.25,717.25,-223.25,8
-316.75,-370.75,150.25,405.5,-157.5,-534.5,702.25,-68.0,8
-202.0,-348.75,112.75,353.5,-303.5,-402.25,441.0,-4.25,8
-195.5,-281.5,108.0,395.5,-403.5,-340.25,186.5,-82.75,8
-428.25,-373.0,93.5,437.75,-338.5,-431.75,-139.5,-223.5,8
-940.75,-381.75,52.0,392.25,-153.75,-517.25,220.25,-306.25,8
-1553.75,-296.75,-11.75,321.25,-107.5,-667.75,598.5,-322.75,8
-1418.75,-302.5,-92.25,273.75,-69.25,-755.5,207.0,-227.5,8
-795.75,-269.75,-132.5,315.0,-309.5,-822.25,-499.5,-374.25,8
-303.25,-268.5,-107.0,306.0,-602.25,-947.25,-1108.25,-613.75,8
297.5,-289.5,1.25,304.75,-720.5,-826.25,-945.25,-299.0,8
535.5,-269.75,98.5,300.75,-776.75,-837.0,-224.25,402.75,8
645.75,-205.0,-48.5,340.75,-808.75,-688.25,175.5,633.0,8
605.25,-150.5,-273.5,272.0,-869.5,-465.25,273.0,671.0,8
506.25,-61.5,-369.25,142.5,-884.25,-437.25,225.0,644.75,8
519.5,-15.0,-455.75,34.5,-931.0,-548.0,-38.75,547.5,8
345.25,4.0,-281.25,-39.5,-1011.25,-822.0,-347.75,585.0,8
164.0,103.5,-158.25,14.0,-1006.75,-934.25,-562.75,647.0,8
-87.5,269.0,-240.75,21.5,-979.0,-796.5,-729.25,725.0,8
-127.75,279.0,-65.75,45.75,-870.75,-245.0,-888.0,709.0,8
-125.5,105.75,53.25,72.75,-907.25,290.75,-1078.0,678.5,8
-189.0,-17.25,145.5,91.0,-1112.5,651.5,-1403.0,596.5,8
-203.25,-127.25,130.75,68.5,-1476.75,857.0,-1627.25,440.75,8
-200.5,-224.75,-16.75,1.75,-1844.0,1013.5,-1573.5,307.25,8
-231.0,-450.75,-15.0,-40.25,-878.75,1345.25,-1227.25,383.75,8
-304.0,-720.25,-16.0,-56.25,1178.5,1641.0,-1036.0,706.5,8
-430.75,-623.75,88.75,49.75,1889.0,1744.75,-1076.5,714.25,8
-596.25,-406.0,250.5,194.25,2170.25,1701.75,-1092.75,579.25,8
-595.5,-364.5,337.25,352.5,2470.0,1363.0,-808.75,550.5,8
-598.5,-477.25,296.75,421.75,2415.5,780.0,-775.0,555.0,8
-672.25,-553.75,222.5,393.75,2179.75,321.25,-964.5,464.5,8
-664.25,-563.75,-105.5,345.0,1058.25,400.0,-1154.25,405.75,8
-530.25,-534.75,-345.25,244.25,414.5,722.5,-1218.0,333.0,8
-495.25,-550.0,-8.75,145.5,274.0,1342.0,-1088.25,200.25,8
-453.75,-536.25,21.75,89.5,115.5,2084.0,-1137.75,39.0,8
-323.25,-394.5,11.25,-42.5,-46.0,1975.5,-926.0,-100.25,8
-257.75,-219.5,149.75,-157.5,-152.25,818.0,-693.5,-191.5,8
-269.25,-114.25,58.25,-208.75,-230.25,326.5,-512.75,-191.25,8
-256.5,59.0,-45.5,-300.75,-360.75,-103.0,-374.5,-122.0,8
-447.25,142.25,-291.75,-381.75,-444.0,-318.25,-243.75,-19.75,8
-560.75,255.5,-205.75,-440.5,-592.0,-224.5,440.0,45.5,8
-239.0,361.75,-9.25,-498.5,-522.25,49.5,675.25,15.75,8
152.5,470.25,29.0,-550.25,-389.25,58.5,963.25,-64.25,8
616.25,594.75,-306.0,-564.5,-235.25,303.0,1334.75,-152.0,8
952.25,534.75,-564.0,-558.0,-114.75,965.75,1520.25,-200.25,8
1119.25,485.0,-203.75,-542.5,-84.25,753.5,1418.0,-288.0,8
1103.75,479.0,-41.0,-510.75,-126.25,960.75,119.25,-430.5,8
871.0,498.25,106.75,-452.0,-497.0,1004.75,-701.75,-435.5,8
666.75,482.25,125.75,-286.25,-937.75,981.5,-904.75,-391.25,8
534.5,516.25,-26.25,-176.5,-1184.75,756.5,-1008.75,-433.0,8
461.25,525.5,-34.25,-168.5,-896.25,72.75,-1170.75,-504.5,8
443.0,513.25,-32.75,-115.25,-149.25,-301.0,-1000.0,-550.25,8
362.5,462.75,137.0,-156.5,282.25,-363.75,-1004.5,-573.5,8
284.75,298.0,200.75,-256.0,197.0,-99.5,-1188.75,-555.75,8
350.5,185.25,140.5,-350.0,-60.25,152.0,-1140.75,-416.0,8
333.0,148.75,105.5,-474.5,-593.25,712.5,-1073.5,-265.5,8
317.25,146.75,104.25,-545.5,-637.25,852.5,-950.5,-229.5,8
321.5,157.5,86.5,-555.75,-427.75,913.75,-631.0,-31.75,8
271.75,91.75,-32.75,-569.5,-363.5,1075.0,-572.5,222.0,8
226.75,-124.25,-152.0,-592.5,-588.5,569.75,-310.5,267.5,8
222.75,-196.25,-315.25,-553.75,-1098.75,-790.0,306.5,329.5,8
294.75,78.75,-413.0,-462.5,-1474.75,-954.75,1076.25,383.5,8
296.5,386.0,-338.25,-377.0,-636.5,-860.0,998.5,612.5,8
209.25,478.5,-214.5,-331.75,658.75,-696.25,738.0,490.5,8
54.5,435.75,-166.25,-304.25,988.25,-805.5,424.0,8.75,8
-82.0,269.0,-223.25,-272.0,1131.0,-1026.0,102.5,-134.0,8
-144.0,117.75,-341.5,-389.5,1186.25,45.0,173.5,-386.75,8
-140.75,92.75,-677.0,-489.0,1274.75,744.5,496.25,-271.5,8
-85.5,74.5,-673.0,-287.25,1391.0,1087.25,699.5,-101.75,8
-64.5,90.25,-181.75,-117.0,1550.25,291.0,1050.5,-197.0,8
-87.0,-3.75,75.75,-101.75,1624.0,-356.25,1190.75,-101.0,8
-112.25,-104.25,281.5,-93.25,1612.5,-390.75,1155.25,-22.75,8
-72.75,-67.5,455.25,-129.0,1675.75,-514.5,1443.0,-79.25,8
-8.5,-83.75,553.25,-83.25,1807.5,-1024.0,1742.5,-204.5,8
26.5,-72.0,639.0,-1.5,2034.5,-1016.5,1834.75,-136.0,8
-8.25,52.25,652.5,142.5,1777.75,130.0,1614.75,-222.25,8
-23.25,35.0,787.75,326.25,1296.75,606.5,1289.5,-103.75,8
40.5,12.25,828.0,492.5,500.25,235.5,1223.5,75.75,8
4.75,-5.75,748.0,536.25,113.25,-202.0,1158.0,128.75,8
-39.5,-109.75,615.25,380.25,127.0,-622.5,1021.0,323.5,8
-57.5,-36.0,377.25,378.0,-196.0,-375.75,1024.0,505.5,8
-59.5,53.5,36.25,672.5,-460.5,-213.75,863.5,732.0,8
-28.0,108.5,-312.0,738.75,-602.75,-253.75,-555.5,725.5,8
7.25,94.75,-528.0,620.75,-717.25,-112.5,-726.0,725.0,8
-111.5,54.75,-615.5,633.25,-796.0,610.75,-708.75,714.75,8
-617.5,-12.25,-596.5,412.5,-849.75,1018.0,-929.5,661.25,8
-953.0,-131.5,-503.75,150.5,-866.0,649.25,-1457.5,591.25,8
-989.25,-198.0,-401.75,-92.75,-877.25,290.5,-1641.0,619.75,8
-1066.25,-295.75,-372.75,-412.75,-836.0,-382.75,-1649.5,685.25,8
-922.0,-263.25,-329.25,-950.25,-876.75,-405.75,-1537.25,813.5,8
-306.75,77.5,16.25,-1275.5,-1250.0,-736.0,-1315.0,1091.0,8
211.25,484.0,498.0,-1258.75,-1295.25,-1340.25,-1432.25,1206.5,8
865.25,577.0,715.25,-1155.5,-1211.0,-1065.0,-873.25,1221.0,8
1401.5,560.25,530.0,-986.75,-1296.75,-1197.5,-24.25,1320.25,8
1437.75,571.0,330.0,-645.0,-1301.25,-1128.5,242.0,1390.25,8
1272.25,384.5,155.0,-78.5,284.5,-1018.5,247.5,1306.0,8
631.25,88.75,50.25,995.75,2114.25,-490.25,-235.0,1312.5,8
-0.5,-181.75,97.5,1276.0,2322.25,-152.75,356.25,1235.25,8
97.5,-166.5,36.25,881.5,1738.0,-145.5,1601.5,935.75,8
722.25,2.75,0.75,101.0,964.5,430.0,1012.25,495.75,8
1406.25,210.25,-91.5,-280.0,632.5,221.0,355.75,205.5,8
1323.5,292.25,-132.25,-240.75,668.75,18.0,213.25,74.5,8
1225.75,121.25,-181.5,99.75,471.0,261.0,456.75,141.5,8
378.0,-249.5,-210.0,988.25,1386.5,484.75,570.0,81.5,8
-795.5,-799.5,-182.0,1196.0,1478.0,396.5,584.0,-310.25,8
-929.0,-819.75,-248.0,947.5,1087.5,320.75,739.5,-489.0,8
-946.25,-786.25,-210.5,1027.75,1159.75,231.5,1038.5,-385.5,8
-1108.75,-882.25,-213.0,962.5,863.75,289.0,1012.0,-991.25,8
-955.0,-801.5,-140.0,810.25,718.0,201.25,1012.0,-1534.0,8
-1104.5,-637.0,-56.5,751.0,540.25,68.75,1088.75,-1371.5,8
-1102.75,-552.25,-112.75,487.5,402.75,-21.5,1110.25,-1051.5,8
-1222.0,-213.5,-170.5,476.5,462.0,-352.25,1121.25,-1001.5,8
-1029.5,-109.75,-231.5,256.5,466.75,-413.25,895.25,-1101.25,8
-1063.0,-43.5,-246.25,271.0,580.25,-433.25,750.0,-1276.5,8
-1051.25,-80.75,-382.75,113.5,459.75,-366.75,714.25,-1652.0,8
-601.5,-121.75,-533.25,109.0,411.5,-286.0,730.0,-1938.0,8
-51.25,-96.75,-510.75,62.0,309.75,-9.75,-670.25,-2062.25,8
362.25,-123.0,-526.5,17.0,504.75,187.5,-1399.25,-1735.0,8
344.25,-66.5,-559.0,-51.5,583.25,521.75,-1448.25,-1200.75,8
261.5,96.0,-279.0,-120.0,561.0,1075.75,-1469.0,-775.5,8
83.0,151.5,79.0,-187.0,666.5,1190.75,-1411.25,-431.5,8
71.5,169.25,327.25,-336.0,742.0,1196.5,-1244.0,-140.5,8
201.75,258.0,485.0,-375.5,855.75,1151.75,899.25,-9.5,8
469.5,183.0,511.5,-446.0,833.75,1131.5,959.0,144.5,8
507.5,174.75,588.25,-455.25,883.0,1083.5,1002.75,146.75,8
276.0,175.5,650.75,-451.75,881.0,1055.5,-1036.0,-93.25,8
124.25,250.75,614.75,-381.0,901.5,1048.5,-1003.75,-194.5,8
-43.25,299.75,580.25,-362.0,832.5,1014.25,-904.75,-207.25,8
-60.5,258.25,510.0,-310.0,700.5,972.25,-829.5,-211.25,8
-116.25,179.75,366.5,-291.25,490.5,752.0,-775.75,-383.5,8
12.25,76.5,182.0,-281.75,288.75,414.5,-782.5,-302.25,8
352.25,2.0,-34.25,-253.25,81.0,74.5,-833.75,-191.75,8
460.25,-78.75,-210.75,-226.25,-217.5,-165.75,-265.5,-4.0,8
490.5,-67.25,-274.5,-168.25,-397.5,-432.75,1141.0,72.25,8
702.75,-2.75,-339.0,-152.75,-504.75,-719.75,1202.5,222.75,8
892.5,70.75,-371.5,-122.75,-656.25,-840.75,1295.75,972.5,8
1081.75,28.25,-210.75,-143.25,-858.75,-882.25,1309.5,1401.0,8
1179.75,-16.5,-75.0,-111.75,-1084.5,-876.0,1297.75,1488.5,8
745.0,-44.5,-218.5,-109.0,-948.5,-877.75,1289.5,1057.5,8
-98.75,-119.25,-427.0,-117.75,-728.25,-909.5,1277.75,178.25,8
-917.5,-203.0,-575.5,-80.25,-629.0,-942.0,1267.5,-693.5,8
-935.25,-300.75,-503.5,-71.0,-609.0,-959.25,899.5,-1319.0,8
-957.25,-288.5,-232.75,-62.5,-523.75,-954.75,1193.0,-1401.0,8
-982.5,-164.5,-117.75,-64.5,-679.75,-965.75,938.0,-1478.5,8
-1050.25,10.5,-89.0,-51.5,-907.0,-1018.0,-355.25,-1531.5,8
-179.75,144.75,-9.25,-52.25,-842.25,-1115.5,-679.5,-1628.75,8
1049.25,137.0,437.5,-314.0,-1096.75,-1503.25,-170.75,-1985.0,8
1601.25,429.5,1012.75,-594.5,-1456.75,-1754.25,-148.75,-2484.0,8
1640.0,840.0,943.25,-535.25,-1383.75,-1565.75,-422.0,-2396.0,8
1456.25,644.25,232.5,-169.25,-680.25,-952.0,-967.75,-1407.25,8
781.75,116.25,-582.5,742.25,-271.5,-504.25,-1794.75,414.25,8
175.5,40.5,-563.75,863.0,-1265.25,-761.5,-1454.25,697.0,8
-116.25,29.75,-115.5,599.5,-1598.5,-999.25,-1056.75,566.25,8
-425.75,29.75,-149.0,780.5,-1307.5,-801.0,-1200.25,366.25,8
-1154.0,-136.75,88.0,784.5,-1059.25,-1018.75,-774.25,227.25,8
-1475.0,135.25,193.0,716.25,-381.75,-1496.25,-886.25,164.0,8
-1639.0,211.5,179.5,712.25,-147.25,-1554.5,-828.25,18.25,8
-1342.25,286.25,196.5,590.75,37.25,-972.5,-999.75,-241.5,8
-951.75,255.5,41.75,601.0,395.5,-377.5,-1105.0,-363.5,8
-530.5,226.5,254.5,445.0,523.0,10.0,-1023.75,-460.75,8
-300.25,223.75,205.0,387.75,960.25,532.0,-1054.0,-388.0,8
-334.5,132.5,338.5,287.0,1168.75,777.75,-1065.0,-366.5,8
-938.25,130.5,381.25,246.75,1406.75,1106.0,-847.0,-362.0,8
-1372.25,21.5,73.25,181.75,1488.25,1245.75,-346.25,-318.75,8
-1322.0,17.5,-218.0,185.5,1556.25,1054.5,128.75,-289.75,8
-1357.25,-21.0,-338.0,143.0,1764.75,1054.0,397.5,-273.25,8
-1210.5,-14.5,-299.75,34.75,2124.0,1337.0,679.75,-289.75,8
-897.0,-59.0,-274.75,-5.75,2276.25,2170.0,712.5,-321.75,8
-117.5,-27.5,-393.25,-171.0,2217.75,2298.5,185.25,-321.0,8
490.75,-72.0,-506.25,-141.5,2563.5,2233.25,-525.0,-619.5,8
926.0,-214.0,-396.25,-96.0,2482.75,1889.25,-992.75,-529.25,8
1138.0,-252.25,-285.25,-41.5,2064.5,515.0,-1051.0,-9.5,8
740.25,-282.0,-282.75,17.0,1563.0,-680.25,-914.5,650.0,8
-162.25,-262.5,-296.25,60.75,789.0,-726.75,-755.75,848.5,8
-433.75,-183.0,-195.25,-13.0,500.75,-737.25,-558.5,759.75,8
-180.0,-105.0,-155.75,-70.25,509.0,-762.0,-442.75,815.75,8
-127.25,-118.25,-277.0,-264.5,336.5,-557.0,-281.5,890.5,8
400.5,-44.0,-272.25,-343.25,412.25,257.25,-132.75,914.5,8
1127.25,-48.25,-157.0,-370.0,24.0,536.5,-295.25,913.25,8
1216.25,-103.5,-149.75,-481.25,-370.25,870.0,-440.5,816.0,8
1288.25,-162.25,-123.25,-513.25,-808.25,1124.75,6.75,803.75,8
1351.25,-249.25,-72.0,-524.75,-915.25,1237.25,340.25,915.75,8
1474.0,-222.0,-9.75,-472.5,-1151.5,1032.0,96.0,883.25,8
703.0,-170.5,45.25,-499.0,-1627.75,597.25,261.0,737.25,8
-422.75,-78.5,60.5,-472.0,-1755.75,602.5,977.5,690.75,8
-443.0,17.75,62.0,-486.25,-1933.0,820.25,705.0,767.75,8
-394.0,104.5,54.25,-493.75,-1858.75,602.0,582.75,811.5,8
-404.75,104.5,10.25,-486.5,-1851.5,68.75,1298.25,693.0,8
475.25,103.25,-45.25,-522.0,-1805.75,151.0,1293.0,627.25,8
1556.75,75.75,4.5,-515.5,-1711.5,297.0,1200.25,587.25,8
1521.5,-13.5,34.25,-492.25,-1151.5,746.75,1128.5,351.0,8
1492.25,-4.75,-42.5,-441.5,-1076.0,1098.0,1061.25,-106.75,8
1461.5,-42.25,-58.5,-381.5,-750.0,1144.25,765.0,-444.5,8
1003.0,-16.25,-14.75,-288.75,-589.25,1260.75,500.5,-735.25,8
199.5,-7.5,31.5,-253.5,-570.5,1164.0,511.25,-911.75,8
-176.5,-82.0,212.75,-218.5,-294.25,1230.5,497.25,-788.5,8
-770.25,-107.5,429.75,-211.75,-52.25,1145.25,532.75,-866.0,8
-813.25,-109.25,454.0,-156.5,347.25,1218.0,661.0,-1169.0,8
-494.5,-148.5,356.0,-102.75,250.25,1210.5,840.5,-1266.75,8
-81.75,-224.5,365.25,-113.5,538.5,1227.75,975.5,-1367.25,8
352.0,-220.75,441.5,-97.75,894.5,1242.5,1024.0,-1334.75,8
318.5,-166.5,312.5,-126.0,1103.5,1182.0,1039.75,-1327.75,8
137.5,-156.75,121.0,-166.5,1198.25,1156.5,1009.25,-1300.5,8
-18.5,-165.5,118.25,-284.5,981.75,1100.25,1020.25,-1121.75,8
-94.0,-127.0,186.75,-341.75,813.25,1101.5,1040.25,-1013.0,8
-157.5,-114.5,224.75,-274.5,1082.25,1116.75,1049.0,-905.75,8
-421.5,-79.0,274.75,-228.25,849.0,1194.5,1008.5,-781.0,8
-640.5,-16.5,165.0,-202.5,671.75,1174.0,984.75,-636.25,8
-814.0,141.25,-31.25,-216.0,351.0,1186.5,978.75,-640.75,8
-823.5,366.0,-183.5,-231.25,336.75,1189.25,935.0,-819.0,8
-803.75,359.25,-282.75,-182.5,1243.0,1216.25,980.25,-1150.5,8
-820.0,289.25,-342.25,-128.75,1370.0,1209.75,1091.5,-1306.5,8
-852.75,349.0,-432.5,-100.0,1254.25,1159.25,1082.25,-1284.25,8
-853.75,327.25,-430.75,-47.5,1095.75,1078.0,1126.25,-1392.75,8
-818.75,335.0,-309.25,-14.25,793.25,990.0,-50.75,-1472.5,8
-771.25,259.75,-250.5,25.5,883.5,974.0,-876.25,-996.25,8
-719.0,139.75,-282.25,50.0,624.5,894.5,-962.0,118.5,8
-639.5,102.75,-232.0,95.5,413.5,582.0,-1188.0,773.5,8
-711.0,-20.75,-193.5,136.75,378.75,-269.75,-1321.5,865.25,8
-1098.25,-105.0,-148.75,135.5,304.75,-975.75,-1243.5,1039.75,8
-1227.75,-119.5,-43.75,139.0,329.0,-1014.75,-1055.25,1098.0,8
-1273.25,-89.75,30.0,157.75,388.5,-1028.25,-978.75,1083.0,8
-1202.25,-68.25,146.25,203.0,129.0,-1063.0,-948.0,1061.75,8
-1116.75,-71.25,292.75,255.25,260.0,-1057.0,-946.0,1058.75,8
-379.75,-74.5,421.25,355.0,177.5,-1004.25,-935.25,1186.5,8
577.0,-82.75,498.75,374.75,-31.75,-1013.0,-873.75,-16.5,8
922.0,-99.0,466.75,343.75,191.0,-1069.0,-860.0,-477.5,8
869.0,-120.25,441.0,323.5,-365.75,-1161.25,-806.75,-135.25,8
813.5,-142.0,447.25,266.75,-490.75,-1173.5,-812.25,350.0,8
784.75,-64.5,362.5,100.5,-1092.25,-1173.5,-787.0,579.75,8
766.5,42.25,161.25,-209.0,-1303.75,-1227.0,-778.25,535.5,8
782.5,100.0,-47.5,-374.5,-980.25,-1235.5,-804.75,194.0,8
629.0,146.0,-100.75,-249.5,-1051.5,-817.5,-818.5,-341.75,8
149.0,131.0,-21.0,-18.5,-716.5,-602.25,-883.75,-853.5,8
-58.25,82.25,52.5,139.75,-677.75,-633.5,-890.25,-1215.0,8
-249.5,46.0,33.75,187.0,-618.25,-772.25,-773.0,-1440.75,8
-355.0,19.5,-46.5,138.5,-933.75,-828.25,581.0,-1676.5,8
-411.25,6.25,-22.25,88.5,-711.5,-899.5,1060.0,224.5,8
-372.25,3.5,6.25,47.25,-424.0,-844.25,943.5,91.25,8
-324.25,-100.75,1.5,-22.75,-378.5,-773.0,975.75,30.0,8
-323.25,-187.25,74.0,-92.25,-159.25,-836.0,1048.25,305.75,8
-382.0,-185.5,129.0,-133.5,-695.5,-426.5,1063.0,310.25,8
-528.75,-204.5,98.75,-154.0,-610.75,418.25,1101.0,258.25,8
-714.75,-213.5,-234.5,-174.0,-972.0,527.25,1105.5,375.25,8
-807.0,-132.75,-690.5,-127.0,-971.0,515.75,1067.0,405.25,8
-777.25,25.25,-777.25,-155.25,-708.5,587.5,997.0,429.75,8
-662.5,55.0,-522.0,-72.75,-663.75,658.5,960.5,429.5,8
-297.25,19.0,-355.0,-40.75,-1013.25,717.75,1026.5,195.5,8
287.25,21.5,-308.25,-172.75,-960.0,835.5,1056.0,123.75,8
928.75,11.75,-272.25,-217.0,-908.75,866.5,947.0,221.5,8
1105.5,-11.0,-205.75,-290.0,-1256.75,857.5,860.0,119.0,8
940.25,-30.75,-28.0,-271.75,-1557.25,817.25,836.5,205.0,8
730.25,-19.75,204.25,-158.0,-1203.25,823.75,839.0,167.75,8
568.25,62.75,424.5,-34.5,-811.0,791.75,881.75,109.25,8
545.0,234.5,447.0,21.75,55.5,777.75,770.5,-5.75,8
478.75,402.25,407.0,-4.25,730.75,848.5,138.0,-221.75,8
482.75,476.0,415.25,-52.25,902.5,107.5,-288.25,38.25,8
442.5,488.25,453.5,-134.75,896.75,-988.75,-737.75,-12.0,8
439.25,450.75,515.0,-118.5,1483.5,-1024.0,-918.75,-1720.5,8
468.75,284.75,522.0,-96.5,983.75,-1228.25,-1007.5,-1586.5,8
318.25,57.5,536.0,-81.75,638.0,-1243.75,-1146.75,-1955.75,8
125.75,-248.75,509.75,9.0,314.0,-1145.25,-1206.5,-1691.0,8
-78.0,-330.5,447.5,14.0,-302.75,-1151.25,-1067.0,-1468.0,8
-197.75,-328.0,306.5,111.0,-730.75,-949.0,-968.0,-1086.25,8
-253.75,-518.75,159.25,209.5,-1202.5,-874.25,-888.0,-547.75,8
-251.0,-454.5,-56.25,212.25,-1390.75,-877.25,-838.25,-269.0,8
-210.5,-323.0,-376.75,94.0,-1733.0,-726.75,-844.25,-369.25,8
-215.0,-223.75,-695.0,-156.75,-2431.5,-461.5,-826.0,-642.75,8
-265.25,-282.75,-826.0,-119.5,-2157.0,-200.0,-769.25,-483.75,8
-255.75,-227.75,-765.25,-160.75,-2424.25,-478.0,-732.5,-138.75,8
-134.75,230.25,-696.5,-369.5,-2607.0,-999.0,-716.5,591.25,8
-17.75,608.75,-712.75,-455.0,-2082.0,-1199.75,-580.25,890.5,8
126.0,586.5,-1020.75,-403.5,-1524.75,-1431.0,-556.25,1054.25,8
111.75,230.0,-936.75,7.5,-123.0,-989.75,-745.25,2599.5,8
-254.25,-466.5,-108.0,726.5,788.0,-324.5,-910.25,2792.25,8
-594.5,-720.75,401.5,1113.75,1219.0,-510.5,-893.0,2099.0,8
-586.5,-486.25,626.25,1076.25,1568.0,-428.0,-915.25,1390.0,8
-574.5,-387.5,704.0,1109.75,2016.0,-183.75,-894.5,1158.25,8
-512.75,-276.0,525.5,992.75,1820.5,-189.5,-834.25,1195.75,8
-557.25,-383.0,623.0,887.75,2044.5,-296.0,-821.5,1029.75,8
-625.25,-627.25,621.5,663.5,1358.25,-413.75,-820.25,1039.75,8
-403.0,-410.25,561.75,364.0,1205.5,-399.25,-868.5,1107.25,8
-267.5,-456.75,508.0,371.0,1463.75,-585.0,-833.0,1117.25,8
-265.0,-460.5,495.0,304.25,1686.5,-869.25,-788.0,1052.5,8
-249.5,-304.5,455.25,194.0,1589.25,-712.0,-525.75,1084.75,8
-97.0,71.75,216.75,-69.25,1188.25,685.75,-190.0,1452.5,8
98.75,532.25,94.75,-190.25,1482.75,712.75,-100.5,1989.5,8
-149.5,270.75,304.0,198.25,2117.5,593.75,-61.0,1949.25,8
-24.5,514.75,77.25,-379.0,1398.75,82.5,-72.5,1905.75,8
322.5,729.25,-88.75,-222.0,1735.75,1122.25,-692.0,1473.25,8
-696.0,-273.25,490.25,446.25,1304.25,1428.25,-677.5,1008.25,8
-104.75,649.75,-303.25,-1063.25,-895.5,31.0,129.25,-50.25,8
827.0,1134.75,-710.5,-966.75,-742.0,675.0,-21.0,-89.25,8
-198.75,677.75,-337.5,-603.25,-470.5,1185.25,-66.5,-391.75,8
-400.25,687.0,-531.25,-792.25,-535.0,1178.5,-102.75,-924.0,8
-614.75,508.5,-391.25,-302.0,-268.25,1473.0,-302.75,-1239.25,8
-491.5,697.0,-556.5,-438.0,-392.0,1193.75,-424.75,-1371.75,8
-245.5,502.75,-540.25,-129.25,240.25,1074.0,-727.0,-1058.75,8
-193.0,371.25,-593.5,-187.5,205.75,493.5,-671.5,-826.25,8
30.0,405.5,-606.0,-73.5,624.75,899.75,-587.25,-1474.5,8
30.0,197.75,-396.25,-23.25,978.5,1328.75,-479.25,-2464.5,8
176.75,222.75,-229.5,-22.5,2442.75,1293.0,-695.25,-2999.0,8
163.0,78.25,12.25,89.25,2953.75,776.25,-1085.0,-3036.25,8
249.25,268.0,201.5,72.5,3106.5,-918.0,-1419.0,-3099.25,8
237.0,269.75,266.5,220.5,3189.75,-707.5,-1636.5,-3072.0,8
264.25,201.5,-72.25,190.5,2793.25,-271.75,-1734.25,-2791.75,8
-6.75,-358.25,-445.0,499.75,2079.25,241.25,-1820.5,-2357.25,8
-559.0,-381.5,-309.25,835.25,1380.5,-224.0,-1602.5,-2644.5,8
-572.5,-386.0,311.25,782.0,105.5,-747.5,-1461.25,-3196.5,8
-517.0,-595.5,553.5,632.0,-558.5,-750.25,-1463.75,-2996.75,8
-654.0,-863.5,873.25,618.5,-569.5,-601.75,-1527.0,-2584.75,8
-700.5,-1140.0,1058.5,525.25,-771.0,-1042.25,-908.5,-1966.25,8
-509.75,-897.25,899.75,440.25,-855.75,-1076.25,57.25,-1581.75,8
-299.0,-587.0,892.25,307.25,-1128.0,-838.75,605.25,-1282.75,8
-73.75,-538.75,651.75,135.0,-2328.75,-711.5,989.25,-823.25,8
19.25,-462.25,402.5,109.25,-2696.5,1491.5,931.75,-728.5,8
82.5,-371.25,69.0,-18.25,-2737.75,2038.75,838.25,-666.25,8
27.25,-193.0,37.5,-12.5,-2705.25,2020.75,1086.0,-594.75,8
69.5,10.75,11.0,-98.25,-2772.75,1647.5,1100.25,-533.0,8
50.25,189.25,-171.75,-60.75,-2729.5,1074.25,703.5,-475.0,8
24.25,119.75,-191.25,-131.25,-2768.25,487.0,559.5,-445.25,8
-6.25,91.5,-222.75,-137.75,-2675.75,-150.75,844.25,-425.5,8
40.5,31.5,-211.25,-143.0,-2595.5,-314.0,1152.25,-235.5,8
131.5,-21.75,-214.0,-149.25,-2481.5,-268.75,1081.25,278.5,8
159.0,69.25,-248.0,-128.25,-2374.0,-25.0,850.0,409.75,8
196.25,-82.0,-392.75,-173.75,-2224.0,376.0,877.75,1001.5,8
211.5,-77.0,-811.5,-169.0,-2111.0,476.0,811.0,1597.0,8
251.5,-63.25,-1143.5,-211.75,-2090.5,638.25,815.5,1610.0,8
182.25,-144.25,-1058.25,-197.5,-1134.25,530.75,1051.5,1543.75,8
135.5,-74.25,-895.75,-211.5,-198.25,-270.75,1456.0,1618.5,8
134.25,79.75,-822.75,-208.25,-106.0,-244.25,1827.5,1761.25,8
109.25,138.0,-702.25,-218.75,-26.75,-235.5,1926.75,1768.75,8
33.5,11.25,-424.25,-220.5,595.25,-275.75,1392.75,1600.5,8
100.5,54.5,-150.75,-236.5,1106.0,-250.75,1133.5,1324.5,8
157.5,48.0,107.0,-255.75,1503.25,-499.25,1570.5,1219.0,8
136.0,95.75,88.5,-284.5,1741.5,-1037.5,1631.0,1258.25,8
291.25,444.5,-223.25,-600.5,1975.25,-1443.5,1970.0,1182.75,8
790.0,861.0,-486.75,-723.75,2089.5,-1002.0,1747.75,867.5,8
852.75,879.75,-641.5,-618.5,2078.25,-725.25,1100.25,325.25,8
738.25,724.75,-338.75,-564.0,2095.75,-758.75,771.0,61.25,8
720.75,836.0,13.5,-484.5,2050.75,-591.0,615.25,31.75,8
545.25,1208.75,347.0,-357.75,2076.5,-374.0,1018.75,263.25,8
354.25,1144.5,750.75,-366.75,2126.0,480.5,1071.5,610.25,8
258.25,735.0,878.75,-212.25,2159.75,1090.0,563.25,581.75,8
122.25,513.5,950.25,-193.0,2200.25,1244.0,208.75,638.75,8
99.75,294.25,831.5,-89.25,2193.75,1264.5,-158.75,601.25,8
-11.0,133.25,628.5,-12.25,2242.25,1127.25,151.75,581.75,8
-21.25,178.5,502.0,73.0,2127.75,998.25,108.25,462.5,8
-93.5,389.75,326.75,162.5,1803.25,729.5,70.5,350.25,8
-73.75,317.0,70.5,247.5,1255.5,-682.75,-539.75,501.75,8
-125.5,-36.5,-53.75,331.75,949.5,-638.25,-1320.5,544.0,8
-144.0,-31.0,-158.75,283.0,878.0,-730.0,-1579.25,686.25,8
-27.0,-451.5,-585.5,201.0,1059.25,-385.5,-1219.25,812.5,8
305.75,-1020.25,-1257.25,175.75,712.25,150.0,-510.5,612.25,8
506.5,-1327.25,-1406.0,515.25,489.25,568.25,-395.25,394.75,8
-368.5,-1730.0,-1094.25,861.75,286.5,735.5,-1161.0,618.5,8
-847.5,-1766.75,-672.0,756.0,316.5,262.0,-2607.0,792.0,8
-755.25,-1623.75,-737.25,589.0,285.75,-441.25,-2364.75,757.25,8
-702.75,-1612.75,-205.0,626.25,-333.75,-789.5,-2218.5,920.25,8
-816.5,-1530.5,335.0,589.25,-293.0,-761.25,-2084.25,890.75,8
-716.5,-1134.0,538.5,560.0,-503.5,-671.75,-2155.5,948.25,8
-652.75,-700.75,617.75,453.5,-66.0,-374.5,-2089.0,1027.25,8
-514.5,-360.0,346.5,281.25,95.25,105.0,-1474.0,1023.0,8
-609.5,-167.0,-10.25,311.0,-313.75,514.0,-194.75,1078.5,8
-399.0,165.25,-66.25,320.0,-92.25,824.75,-44.0,1109.25,8
-332.25,295.25,56.0,216.0,-318.25,314.75,-79.5,1231.25,8
-446.5,105.5,237.75,53.25,-40.0,-79.0,-13.75,1297.75,8
-436.5,97.25,381.25,-104.5,-84.25,-322.75,60.0,1222.75,8
-258.0,428.0,388.25,-251.5,58.25,-678.5,272.0,1100.0,8
-93.25,715.5,152.0,-255.0,248.0,-798.75,-378.75,997.25,8
-24.5,1010.0,-14.5,-366.25,281.75,-1223.5,-896.0,823.5,8
202.5,1098.25,-362.0,-562.0,348.0,-1294.25,-752.25,592.25,8
185.5,1115.75,-863.75,-536.25,550.25,-1159.25,-593.25,469.0,8
32.75,1079.5,-967.75,-304.75,900.25,-1075.0,-383.5,318.5,8
-172.25,967.25,-815.75,-199.25,865.5,-744.75,-201.75,31.75,8
-160.25,584.0,-347.0,-150.5,687.5,-635.5,-322.75,-227.0,8
-56.0,235.5,159.0,-152.75,520.25,-356.75,-643.75,-497.25,8
152.75,-193.75,613.0,-259.75,492.25,-342.25,-782.25,-813.75,8
258.75,-592.25,869.0,-487.25,245.75,-243.75,-705.5,-1153.5,8
544.5,-549.75,725.75,-723.0,547.75,147.0,-573.5,-1450.75,8
580.25,-444.5,216.5,-247.75,1491.25,570.75,-222.5,-1476.0,8
392.75,-233.0,-18.5,-410.75,686.25,370.75,-155.0,-1594.25,8
927.0,674.0,134.25,-823.0,221.0,219.75,305.5,-1781.75,8
807.75,733.0,421.25,-750.5,465.25,409.75,679.0,-1812.0,8
633.0,602.25,584.75,-775.25,402.0,464.0,671.0,-1589.75,8
691.5,884.25,709.75,-734.5,735.5,653.75,722.5,-1265.25,8
462.25,581.5,868.5,-733.5,1362.0,835.25,585.0,-1261.0,8
115.25,319.0,1031.0,-714.0,1774.25,823.5,631.75,-1282.5,8
-370.25,285.0,1278.25,-483.5,2157.75,770.25,964.25,-1433.0,8
-558.25,516.25,1248.75,-282.75,1599.0,204.0,1212.25,-1597.5,8
-598.0,646.25,707.75,132.0,1534.75,-241.5,1159.0,-1519.0,8
-389.75,444.0,288.0,221.5,1523.5,78.0,1079.25,-888.75,8
-248.5,158.75,-100.0,312.25,1197.75,678.75,1000.5,-460.25,8
-239.25,-102.25,-279.5,340.0,866.5,614.0,1216.5,-382.0,8
-154.0,-443.5,-464.75,253.25,507.75,117.0,1190.5,-475.25,8
-94.5,-507.25,-538.75,167.75,328.0,-235.75,1120.5,-675.5,8
187.25,-241.5,-395.0,12.25,150.75,-244.0,1090.0,-880.0,8
201.5,-133.75,-314.25,-31.75,-15.5,-275.75,1024.5,-860.75,8
370.75,-100.75,-560.75,-36.0,-207.75,-488.5,1048.25,-813.25,8
485.75,-276.75,-898.0,10.75,-320.5,-488.0,1046.75,-798.25,8
287.5,-576.5,-948.5,51.75,-443.75,-355.75,957.25,-545.5,8
-4.5,-1041.25,-989.25,217.75,-546.5,-70.75,623.25,-33.25,8
-291.75,-842.0,-982.0,533.75,-699.25,23.0,235.75,370.5,8
-726.25,-545.25,-438.5,828.75,-811.25,79.25,-81.75,301.25,8
-796.0,-435.5,-90.0,708.5,-909.25,220.25,108.25,62.0,8
-666.25,-198.0,-35.25,646.0,-925.25,86.0,413.5,5.5,8
-637.5,34.5,-76.25,632.0,-851.75,138.0,345.75,-86.5,8
-494.25,225.25,-253.0,503.25,-1003.0,64.75,426.25,-87.75,8
-405.75,248.5,-359.75,351.25,-1211.25,-311.5,494.0,-118.5,8
-266.25,71.25,-794.0,173.5,-1334.0,-575.5,316.0,-423.75,8
-40.75,-29.75,-1170.5,93.75,-1363.25,-469.0,313.5,-699.75,8
-46.0,-318.0,-1168.25,19.75,-1333.0,-190.5,273.0,-816.5,8
-24.5,-609.5,-970.5,-77.25,-1310.25,-218.25,419.25,-839.0,8
51.5,-554.75,-608.0,-49.75,-1233.75,-632.25,378.25,-881.25,8
204.5,-416.25,-331.0,-28.75,-1320.0,-756.75,281.5,-920.25,8
223.75,-427.75,157.75,8.0,-1613.75,-275.75,230.0,-900.25,8
212.5,-544.25,533.75,4.5,-1735.5,335.0,-78.5,-900.25,8
239.25,-467.25,290.75,-3.75,-1849.75,601.5,-199.5,-882.25,8
346.0,-214.75,35.75,-55.5,-1821.75,743.0,-67.25,-869.75,8
445.0,66.0,25.0,-81.5,-1654.75,928.25,106.5,-837.0,8
404.75,149.0,-133.5,-53.0,-1536.75,747.75,337.75,-828.25,8
441.25,216.75,-339.5,30.25,-1563.25,540.75,498.0,-841.75,8
428.5,168.75,-307.25,53.25,-1638.25,115.75,511.5,-632.25,8
373.75,40.75,-162.5,22.5,-1639.75,-369.25,478.25,-401.75,8
377.0,266.25,-458.5,-23.25,-1532.75,-529.5,251.0,-177.5,8
436.5,565.5,-1041.25,-108.25,-1168.5,-641.0,-22.75,-128.0,8
413.75,537.75,-933.25,-152.5,-649.5,-408.0,-135.0,-57.25,8
196.25,336.0,-45.75,-198.25,215.5,-199.75,-116.5,50.5,8
-49.75,119.25,862.75,-313.0,327.5,53.0,-173.5,118.5,8
-123.25,68.75,1019.5,-517.0,500.5,352.25,-341.0,233.0,8
13.75,380.75,994.0,-603.25,427.0,531.0,-351.25,205.5,8
97.0,380.75,961.5,-561.75,773.0,790.25,-266.5,432.0,8
98.25,281.5,585.25,-437.25,1232.25,1060.25,-126.0,568.5,8
125.25,288.25,99.0,-326.0,1299.0,1370.75,-32.5,673.25,8
10.25,45.5,-566.5,-254.5,1317.25,1345.5,49.5,1038.5,8
-36.75,72.0,-97.75,-133.25,1284.25,1239.5,110.0,1094.5,8
8.25,143.5,797.25,-77.0,1706.0,1160.0,-31.75,1119.25,8
-52.25,115.0,1019.5,-57.75,2001.75,898.0,-74.5,1157.5,8
-2.5,290.0,1037.25,-60.0,2041.25,584.25,-125.75,1133.5,8
45.5,425.25,1006.25,-54.75,1774.0,298.0,-268.0,1030.25,8
51.25,419.0,885.25,-24.25,1113.0,60.0,-207.5,1005.5,8
43.25,352.5,260.0,-4.25,572.5,-8.75,15.5,1120.75,8
-69.0,40.0,-133.0,18.25,344.0,134.5,84.0,1130.0,8
-143.5,-108.5,-360.75,20.0,195.75,353.0,38.75,1139.5,8
-139.75,-70.0,-418.5,111.0,-303.25,523.25,-106.5,989.75,8
-163.0,-198.0,-487.0,219.5,-465.0,429.0,-290.25,870.0,8
-165.25,-19.5,-614.0,202.0,-598.75,267.5,-455.75,706.75,8
0.5,376.0,-699.5,41.0,-661.5,119.0,-625.5,569.5,8
191.25,536.0,-939.5,-161.5,-784.25,-80.5,-688.0,551.5,8
213.5,357.5,-902.5,-246.0,-894.75,-120.75,-645.25,230.0,8
189.5,98.75,-828.75,-43.0,-991.25,-56.5,-336.5,91.5,8
183.5,-18.25,-750.0,280.25,-1197.0,87.0,-191.5,130.25,8
55.75,-322.75,-626.75,184.75,-1418.25,53.5,-332.5,190.75,8
-107.0,-831.25,-585.0,197.75,-1612.25,-6.75,-491.75,104.5,8
-196.75,-799.75,-493.5,523.0,-1694.0,161.5,-346.25,-74.75,8
-249.0,-458.75,-386.25,699.5,-1651.25,367.25,-113.0,-252.75,8
-110.5,-194.0,-306.25,688.75,-1741.0,422.75,-211.75,-578.5,8
-96.75,-53.5,-300.0,357.75,-1903.5,103.5,-354.75,-680.75,8
-184.25,-55.25,-304.75,-154.0,-1082.5,-166.75,-510.25,-633.75,8
-172.0,-44.5,-360.75,-272.25,-17.0,-128.5,-559.0,-567.25,8
-241.0,-62.75,-547.0,-362.75,-55.0,-83.5,-692.5,-873.25,8
-185.0,27.0,-710.25,-916.5,-107.75,-190.5,-886.75,-1146.25,8
-62.25,48.75,-545.0,-947.0,-701.5,-389.75,-1074.5,-1021.5,8
-11.75,1.0,-130.5,-782.25,-477.75,-473.5,-1288.0,-1130.75,8
-39.25,47.25,37.25,-442.75,-18.75,-506.25,-1252.0,-771.75,8
-98.25,-120.25,-47.75,-219.5,8.25,-499.25,-1076.75,-118.5,8
-148.0,-210.75,-365.75,-218.5,-98.5,-409.75,-984.75,121.25,8
-132.25,-163.25,-425.75,-117.0,-140.0,-383.5,-476.5,243.25,8
-83.75,-92.25,4.0,-127.0,235.75,-254.5,288.25,372.75,8
-23.5,177.75,446.5,28.0,420.0,215.5,794.0,621.25,8
38.75,99.25,671.5,115.25,352.5,770.25,1192.5,795.75,8
3.0,4.75,754.0,100.5,334.0,953.75,1691.5,854.25,8
-60.25,56.75,780.25,144.25,163.5,902.5,2375.75,1096.25,8
-246.5,15.5,725.25,140.0,82.5,1027.5,2652.5,1326.75,8
-249.5,83.5,674.5,195.0,-12.5,1247.75,2538.25,1564.75,8
-159.75,55.25,410.75,11.0,-99.25,1289.0,2396.0,2194.25,8
-362.25,90.75,207.5,-233.0,-141.5,1223.5,2338.75,2338.75,8
-676.25,98.0,151.75,-134.5,74.5,1141.5,2265.0,2365.0,8
-1034.5,126.5,143.25,77.25,368.75,1176.0,2379.75,2523.5,8
-1021.5,148.5,83.0,263.0,414.75,1149.0,2026.0,2506.5,8
-1024.25,47.5,7.75,308.25,527.25,954.25,1257.75,2154.5,8
-638.75,32.5,-13.75,194.0,701.0,965.5,534.75,1464.0,8
163.25,86.25,-85.75,136.0,907.5,1116.5,-93.0,733.5,8
946.0,149.75,-76.5,86.75,-345.75,1190.0,-438.25,620.75,8
960.25,141.25,-129.25,94.5,-734.0,1318.25,-508.75,871.25,8
1003.25,47.5,-62.0,106.25,-588.75,1351.0,-692.25,896.25,8
1020.5,-280.5,-31.0,119.25,-580.25,1017.25,-754.5,960.25,8
988.75,-409.25,-43.5,133.25,-630.0,893.5,-687.75,1016.25,8
976.0,-246.0,-29.75,117.0,-572.25,1195.75,-436.75,1017.25,8
773.5,-299.0,-104.5,118.5,-519.75,1331.75,-85.5,1019.25,8
383.5,-177.0,-81.0,58.5,-389.0,985.0,287.75,1021.5,8
65.5,-71.25,-90.25,4.5,-156.0,331.5,691.0,528.5,8
-276.75,-69.75,-151.0,37.75,30.0,-17.25,892.0,15.5,8
-264.0,-9.25,-252.0,48.0,62.0,-186.0,843.5,-282.75,8
-410.75,-71.75,-349.75,50.75,-55.25,-447.25,874.0,-478.75,8
-558.75,-3.25,-345.75,99.75,-221.5,-765.5,966.25,-291.5,8
-563.25,153.75,-264.25,113.25,-378.0,-792.75,972.5,-662.25,8
-520.25,243.75,-202.0,90.25,-469.75,-339.25,697.5,-1149.25,8
-410.0,330.75,-283.0,64.25,-383.25,-112.75,321.0,-1643.75,8
-321.5,280.25,-184.0,10.75,1298.25,-230.75,17.75,-2138.75,8
-234.5,139.25,161.0,11.5,1893.0,-132.0,-322.75,-2408.75,8
-201.25,88.0,378.0,31.25,1885.25,-517.25,-746.0,-2577.25,8
-219.0,-128.5,470.25,-12.75,1890.75,-967.5,-911.25,-2757.75,8
-235.75,-323.75,498.5,-65.25,1899.5,-826.0,-1004.75,-2772.75,8
-275.25,-448.25,446.75,-88.75,1184.25,-314.75,-1200.75,-2737.75,8
-320.0,-466.75,351.0,10.5,803.75,102.75,-1507.25,-2633.75,8
-369.25,-110.25,245.0,209.75,383.5,416.5,-1635.0,-2521.25,8
-421.5,206.0,337.75,130.25,182.75,628.75,-1551.25,-1886.75,8
-578.25,39.75,392.5,-77.75,-12.25,703.5,-1584.0,-930.5,8
-844.75,-280.25,231.0,-24.0,-6.5,841.0,-1578.75,-316.25,8
-1034.75,-256.0,65.25,-66.5,-22.5,785.5,-1418.25,243.5,8
-1010.0,-86.25,-75.75,-38.75,-624.5,684.0,-1119.0,275.25,8
-1041.5,-18.5,-46.5,19.75,-2001.0,367.25,-848.0,223.5,8
-645.0,36.5,-1.75,-7.25,-2003.5,248.75,-722.75,54.25,8
-118.25,80.0,3.75,-26.25,-2007.5,134.25,-581.25,-90.25,8
447.25,77.5,-4.25,-166.75,-2004.0,118.5,-549.0,-151.25,8
849.0,79.0,-41.25,-70.0,-1976.0,243.0,-565.75,-202.75,8
965.25,51.25,-60.0,77.75,-1960.25,219.75,-487.75,-9.0,8
992.5,55.25,-85.75,166.75,-1957.75,250.5,-452.0,150.5,8
756.5,-6.0,-51.25,8.75,-1950.25,190.0,-448.0,298.5,8
536.5,-143.5,-45.0,74.25,-1950.5,36.75,-383.5,232.0,8
427.5,-187.0,-27.25,120.0,-1948.25,-449.25,-316.75,-129.0,8
338.75,-105.0,-36.0,-483.5,-1474.75,-781.25,-300.75,-372.5,8
435.75,158.5,-106.0,-369.75,-271.75,-738.0,-385.0,-310.75,8
421.5,175.5,-24.5,22.75,36.75,-630.5,-384.5,-291.25,8
195.75,211.75,49.5,65.25,179.25,-550.0,-251.25,-637.25,8
43.0,387.0,-4.5,20.75,312.0,-678.0,-109.75,-991.5,8
75.25,517.0,-56.25,-93.25,445.5,-685.25,-76.25,-791.5,8
152.75,520.5,-111.0,-144.0,529.25,-753.75,-223.5,-293.0,8
-97.75,109.0,-199.0,-204.75,579.75,-742.5,-128.25,147.5,8
-325.25,-359.25,-234.5,-134.5,702.0,-682.5,103.0,394.25,8
-442.25,-441.5,-199.5,1.5,826.25,-734.75,174.0,326.25,8
-344.25,34.0,-188.75,-46.5,1003.25,-680.0,314.0,242.25,8
-124.0,232.0,-128.5,4.0,1051.75,-665.25,487.75,110.5,8
-170.75,28.0,23.75,179.0,1045.25,-694.75,607.25,-185.0,8
-206.25,-73.75,235.0,120.25,551.75,-768.5,536.25,-341.75,8
-313.25,-262.5,376.75,161.0,168.75,-766.25,500.75,-152.5,8
-387.25,-210.5,267.5,119.5,227.5,-722.5,703.0,264.75,8
-240.25,-24.0,122.5,47.75,643.0,-700.75,1073.75,600.75,8
-152.5,77.5,23.25,-26.0,1078.5,-693.0,1072.75,546.0,8
-155.5,132.25,-38.0,-80.25,1289.25,-648.75,823.75,296.0,8
-137.0,105.0,-9.75,-14.5,1309.75,-602.25,712.5,-55.0,8
-53.5,23.25,35.0,-45.5,1233.0,-579.0,675.75,-269.75,8
-9.25,-125.75,139.75,-61.0,1012.0,-428.5,588.0,-242.75,8
-2.0,-138.0,143.0,-113.25,624.5,-273.25,236.25,-369.25,8
79.25,-6.25,-27.75,-78.0,483.5,-185.5,-180.5,-86.25,8
38.75,-32.75,-204.0,-8.75,914.75,-211.75,-361.75,299.0,8
-66.75,-88.5,-373.75,8.0,1325.25,-317.0,-396.25,355.5,8
-131.0,47.25,-417.75,53.25,1158.0,-458.5,-401.75,313.25,8
-253.5,88.75,-244.25,84.75,462.0,-594.75,-407.0,140.75,8
-217.25,102.5,-147.0,103.0,-229.5,-751.5,-388.75,120.75,8
11.25,288.5,-50.5,95.25,-678.5,-1009.75,-136.5,377.5,8
271.25,485.25,53.5,35.5,-1130.0,-1220.75,332.0,1072.25,8
461.75,452.0,50.5,-31.5,-1431.25,-1333.5,572.5,1803.0,8
500.5,73.75,54.75,-114.25,-1337.5,-1350.5,322.5,2207.0,8
337.75,-537.75,15.0,-167.5,-1288.75,-1292.25,-8.25,2290.25,8
88.5,-662.75,-1.5,-147.75,-1385.0,-1220.75,180.5,2265.0,8
-0.25,-442.25,-49.25,-170.0,-1487.75,-1203.5,649.25,2217.75,8
-35.5,-341.5,-95.25,-188.75,-1599.0,-1130.25,864.75,2173.0,8
-23.25,-50.0,-170.5,-123.25,-1674.0,-955.5,929.75,2122.75,8
27.75,61.75,-252.75,-57.5,-1621.25,-692.75,1142.25,2083.25,8
34.5,29.0,-137.25,-66.75,-1438.0,-301.5,1237.75,2136.25,8
-5.75,-2.5,-95.5,-87.5,-1071.25,-63.0,1173.75,2251.75,8
-41.0,90.25,-95.5,-40.5,-744.75,-0.5,977.75,2155.5,8
-77.75,177.25,-78.0,22.75,-528.25,37.25,699.25,1999.25,8
-158.0,123.75,-45.0,84.25,-443.0,-22.25,490.75,1708.0,8
-200.0,229.75,124.75,129.25,-396.0,-89.5,281.5,1293.25,8
-310.5,204.5,165.5,106.5,-312.0,-163.75,41.5,1043.5,8
-372.5,46.0,166.0,74.5,-341.75,-296.25,-181.5,465.75,8
-349.0,36.5,132.0,37.25,-357.0,-388.75,-217.0,-70.0,8
-374.0,193.75,220.5,-81.25,-444.75,-502.75,104.75,-318.75,8
-230.0,512.0,799.75,-488.75,-796.75,-876.0,1003.5,-166.25,8
203.0,781.25,1136.75,-660.25,-908.75,-1112.75,1667.25,-20.75,8
42.25,1163.0,563.5,-530.5,-543.0,-953.0,1419.75,-346.0,8
-60.75,1173.75,53.0,-492.75,-221.25,-619.75,796.25,-387.75,8
236.75,575.0,-97.5,-478.25,19.0,-243.5,583.25,-340.5,8
446.5,278.5,-80.25,-381.25,215.5,450.25,307.0,-142.25,8
632.5,213.0,489.0,-339.75,423.25,1010.75,-419.25,101.5,8
791.5,200.5,682.25,-167.0,993.25,1517.75,-999.75,187.0,8
813.0,127.75,116.5,-163.25,1370.25,1505.25,-1202.25,425.75,8
860.25,-38.5,-516.0,-69.5,1499.0,1529.75,-1319.0,793.75,8
649.75,38.75,-904.25,-42.75,1492.5,1441.75,-1418.25,1060.75,8
705.75,76.25,-1147.25,38.5,1260.75,1477.0,-1650.25,816.25,8
849.25,108.25,-1133.5,138.75,1176.0,1575.75,-1738.75,369.5,8
888.5,225.75,-957.25,156.5,1135.5,1590.0,-1688.0,-35.0,8
742.25,315.25,-717.0,240.25,1111.75,1705.25,-1602.75,-402.5,8
617.75,375.0,-486.5,276.5,1094.75,1709.75,-1534.0,-661.5,8
220.5,314.0,-230.25,320.25,1203.25,1763.5,-1504.25,-688.75,8
-169.5,5.75,36.75,309.75,1305.5,1664.25,-1084.25,-756.25,8
-384.5,-372.5,108.5,304.5,1399.25,1315.75,-505.25,-845.5,8
-490.25,-336.0,145.25,329.75,1515.75,1112.25,83.25,-694.0,8
-584.25,-373.75,-171.75,398.25,1635.75,1071.25,501.5,-406.75,8
-617.75,-632.75,-203.75,370.75,1685.75,1059.75,822.5,-394.25,8
-428.25,-601.0,136.25,374.0,1832.25,1007.25,795.5,-502.0,8
-388.75,-508.5,84.0,397.75,1848.25,950.75,794.75,-586.75,8
-405.75,-242.75,-115.75,396.5,1690.0,872.75,618.25,-686.0,8
-443.75,-73.5,-216.0,388.5,903.75,776.0,519.25,-867.5,8
-563.0,-74.75,-271.75,346.0,1260.5,679.25,706.0,-1210.0,8
-638.5,2.25,-205.75,298.75,1441.75,689.25,837.25,-1579.5,8
-632.5,-206.0,-96.75,219.25,1181.75,666.75,917.25,-1948.75,8
-550.25,-323.5,-57.0,202.0,256.0,656.5,1025.5,-1938.25,8
-409.5,-232.25,56.75,192.25,-344.75,552.5,1106.5,-1876.75,8
-186.75,-135.75,690.75,164.0,-617.5,382.75,978.75,-1765.25,8
-154.0,-216.25,1170.5,176.5,-1078.25,294.0,954.25,-1687.0,8
-289.0,-691.75,980.25,229.75,-1007.0,154.25,929.25,-1517.75,8
-478.5,-1053.5,774.25,196.5,-727.75,107.75,874.0,-1108.5,8
-340.0,-903.5,770.25,104.5,-486.0,216.25,696.5,-878.75,8
127.5,-736.75,-57.25,242.25,-383.5,220.75,292.25,-945.5,8
-370.5,-835.75,417.25,487.0,-471.0,275.75,-127.75,-313.25,8
-1060.25,-650.75,1058.5,360.5,-734.25,113.5,-478.25,502.25,8
-953.5,-397.0,924.75,226.25,-1675.5,-377.25,-330.25,767.5,8
-643.5,-354.25,-536.75,239.25,-1617.5,-585.5,-140.5,1289.5,8
-635.0,-535.75,-1098.5,224.25,-1129.25,-780.0,73.5,1373.0,8
-465.0,-572.75,-1157.75,286.75,-972.0,-947.25,31.0,1328.5,8
-588.75,-813.0,-842.25,253.75,-600.5,-1125.0,197.5,1206.25,8
-420.0,-615.5,-924.25,202.25,-507.0,-1128.5,330.75,886.5,8
-292.25,-196.5,-827.5,120.75,-202.25,-923.75,367.0,792.75,8
-184.5,-25.5,292.0,26.0,75.75,-838.25,672.25,731.25,8
-137.75,370.25,-196.5,141.75,168.25,-736.0,912.0,883.5,8
-169.25,871.5,-515.25,98.5,437.25,-969.5,771.75,1040.0,8
-154.25,968.25,-554.0,29.5,562.25,-1378.5,463.25,1166.5,8
-310.5,1065.5,-512.0,-78.25,744.5,-1533.5,70.75,1005.5,8
-401.0,1058.0,-554.75,-145.0,970.75,-1556.25,-519.75,998.25,8
-412.25,-88.75,349.0,-112.25,1023.25,-1634.25,-828.25,1048.75,8
-487.25,-993.75,1217.0,-252.25,802.75,-1598.5,-1046.25,888.0,8
-543.5,-1103.5,1103.0,-361.0,588.0,-1399.75,-1207.25,421.0,8
-389.25,-1059.0,672.25,-354.0,258.75,-1066.75,-1287.5,-150.0,8
-204.5,-858.25,-546.25,-374.5,-182.5,-1105.5,-1359.5,-193.0,8
49.75,-746.5,-1182.75,-348.75,-539.0,-1305.0,-1442.5,-96.0,8
141.25,-324.5,-1276.25,-244.0,-688.5,-1138.25,-1558.25,7.5,8
171.5,300.0,-222.5,-196.25,-385.25,-971.0,-1584.25,110.25,8
190.25,662.25,-94.5,-231.25,-506.75,-306.75,-1605.5,329.75,8
290.0,602.25,-517.5,-283.5,-636.0,92.75,-1638.0,369.25,8
385.75,370.5,-254.5,-259.0,-469.0,475.25,-1548.0,328.75,8
422.75,188.0,15.5,-256.75,-466.0,936.75,-1020.0,514.25,8
543.75,190.75,-297.25,-215.75,-426.75,1154.0,-754.75,569.25,8
534.0,299.75,-298.25,-193.5,-370.25,1174.75,-696.75,620.0,8
513.0,244.5,72.5,-247.0,48.0,1124.0,-1106.75,1254.75,8
305.0,333.0,-302.25,-259.75,445.0,1104.75,-1552.75,2269.25,8
127.25,605.0,-717.75,-354.0,-79.25,1145.0,-1353.25,2521.25,8
111.25,1013.25,-286.25,-390.5,-564.0,1178.0,-1080.75,2558.5,8
70.25,1283.5,404.0,-477.25,-795.25,-45.75,-772.0,2296.25,8
89.0,1302.0,464.25,-640.5,-1125.0,-924.75,-392.75,2001.75,8
295.25,833.75,61.75,-592.0,-694.75,-945.5,-226.25,1466.5,8
429.5,124.25,26.0,-201.0,-784.75,-917.0,-247.75,1176.5,8
398.25,-285.75,-240.0,-167.0,-1067.0,-1176.25,-266.0,1458.5,8
500.0,-460.75,-389.25,-164.25,-776.0,-1230.0,-216.5,1659.5,8
447.5,-683.75,-1013.0,13.5,-834.75,-1259.0,-301.0,1508.5,8
364.25,-606.5,-1274.0,-99.75,-877.0,-985.0,-451.75,1618.5,8
406.0,-526.75,-363.75,-68.5,-319.25,68.75,-259.75,1742.25,8
272.75,-181.25,-10.0,-174.0,-524.0,706.75,12.0,1791.5,8
195.5,533.0,-2.75,-201.75,-695.0,728.5,307.5,1829.5,8
286.75,448.75,260.5,-172.75,-682.75,687.25,592.25,1896.0,8
299.25,36.5,1294.25,-134.0,-54.5,552.5,798.5,1976.75,8
453.75,-63.75,1808.5,-172.5,-164.5,-353.0,1125.0,2021.75,8
741.25,-123.5,1066.0,-189.75,-1016.0,-1108.25,1241.5,1602.25,8
847.0,-121.75,592.5,-138.25,-868.0,-996.5,1171.0,942.0,8
812.75,-89.25,809.75,-229.5,209.75,-329.0,1247.25,495.75,8
632.25,-252.0,266.5,-208.25,163.0,452.75,1276.75,79.75,8
398.5,-286.25,202.75,-225.5,475.25,725.0,1259.0,-353.75,8
332.0,-128.0,120.5,-217.25,951.75,794.25,1359.5,-435.75,8
192.0,82.25,106.25,-186.25,282.5,1089.25,1469.0,-582.5,8
-208.5,304.0,371.5,-95.25,-6.25,1199.0,1669.75,-806.5,8
-429.25,175.5,465.75,-93.75,-651.5,861.75,1731.75,-922.25,8
-488.25,61.25,347.5,-40.25,-627.75,1209.25,1513.75,-461.0,8
-597.75,18.5,54.25,118.0,-540.25,1488.0,1476.25,-588.5,8
-814.75,57.0,223.25,66.25,-808.25,1493.5,1299.75,-961.5,8
-1196.75,56.25,152.5,69.5,-657.0,1546.0,1026.75,-1572.25,8
-1182.75,-23.25,147.25,-9.5,-847.0,1498.25,762.25,-1527.0,8
-834.75,54.25,318.5,-63.25,-776.0,152.75,509.75,-1602.25,8
-536.0,34.25,399.25,54.25,-681.25,-625.5,506.0,-1428.25,8
-57.75,-4.75,460.25,156.25,-476.5,-552.0,395.25,-1674.5,8
528.25,-23.0,200.25,184.0,392.0,-598.5,124.0,-1896.75,8
1136.25,73.0,-106.0,119.5,-569.5,-653.5,-16.25,-1655.25,8
1577.75,280.5,-350.0,-65.5,-1534.25,-721.25,85.25,-1841.0,8
1682.75,394.75,-454.25,-111.5,-1065.5,-744.0,417.75,-1643.75,8
1759.75,394.25,-111.0,-124.75,-848.0,-266.5,1058.0,-1452.25,8
1440.0,368.5,548.0,-201.0,-812.25,403.0,1342.75,-1163.0,8
980.25,60.25,541.0,72.25,-449.5,1029.75,1043.25,-1031.5,8
335.0,-38.25,-558.0,104.25,-324.75,1005.25,1085.5,-772.0,8
-263.75,153.0,-1143.5,-0.25,-264.75,948.5,755.75,-653.0,8
-682.25,123.5,-1147.0,37.0,-119.5,883.75,209.25,-768.75,8
-1052.0,188.5,-1223.25,-58.25,-146.25,704.0,-301.75,-713.5,8
-869.5,198.0,-1312.75,-109.75,35.0,641.25,-668.25,-254.0,8
-435.0,166.5,-1282.75,0.5,349.5,507.0,-782.25,542.5,8
33.75,87.25,-881.5,-24.25,115.25,356.5,-868.25,391.25,8
623.75,4.25,-569.75,-187.75,-562.25,371.0,-1066.5,154.25,8
937.5,-265.75,56.25,-89.5,-351.5,699.0,-1132.5,146.75,8
803.25,-586.75,137.75,-67.5,9.5,629.5,-1163.75,232.0,8
194.25,-607.25,146.5,24.0,53.5,850.25,-1190.0,-638.5,8
-349.5,-366.5,359.25,75.25,-387.25,862.25,-1093.0,-1471.5,8
-539.25,-75.0,454.5,-8.25,-236.0,878.25,-1202.0,-1215.0,8
-482.75,-82.25,526.25,-3.5,150.5,859.0,-1218.75,-933.0,8
-38.0,-66.5,529.5,19.0,-250.75,499.25,-1023.75,-982.75,8
156.25,142.0,315.0,0.75,-1283.75,-100.0,-830.0,-1168.25,8
219.25,242.75,67.5,-206.0,-1825.25,-1006.25,-870.25,-1242.0,8
170.5,83.0,-38.75,-296.5,-1351.0,-1001.0,-863.25,-1063.0,8
-88.5,102.5,-51.0,-186.75,-868.75,-968.25,-598.0,-1526.75,8
-118.75,184.25,18.5,-231.5,-372.5,-1032.75,-68.25,-1677.5,8
-16.0,167.5,103.75,-428.5,388.75,-1041.5,264.25,-1299.0,8
94.5,107.25,119.25,-461.25,690.0,-474.5,158.0,-1246.25,8
224.25,8.75,126.75,-358.0,1022.5,146.25,144.5,-543.0,8
281.25,-164.25,157.75,11.0,1714.25,409.5,166.5,-446.25,8
-131.5,-383.75,164.25,292.0,1627.5,873.0,164.5,83.75,8
-802.25,-310.5,78.25,210.0,1244.0,1325.0,288.25,584.25,8
-1158.75,-288.5,-170.0,325.25,1809.0,1386.0,395.25,599.0,8
-1049.5,-340.0,-319.25,534.75,2313.0,1018.5,458.25,1280.75,8
-873.25,-265.75,-435.25,497.0,2101.5,115.25,548.25,1154.25,8
-625.5,-238.25,-445.25,419.25,1705.75,-382.5,639.25,511.5,8
-255.75,-45.75,-455.0,313.25,1458.5,381.5,721.0,71.25,8
-244.75,-146.25,-132.5,489.25,1734.25,1324.5,708.0,400.75,8
-222.0,-228.25,407.0,563.0,1331.75,1271.25,645.25,153.75,8
13.0,78.75,577.75,448.75,751.75,1358.75,659.5,176.75,8
132.0,368.0,769.5,357.5,536.0,1505.0,645.25,603.5,8
56.0,623.5,830.25,293.5,230.25,975.25,724.5,-140.25,8
-48.5,492.75,841.25,231.0,-196.25,831.0,768.25,-339.75,8
-150.0,268.5,767.0,208.25,-631.5,911.25,733.25,-889.25,8
-257.5,109.5,658.25,328.0,-573.0,904.5,784.25,-898.75,8
-538.5,48.5,524.0,251.25,-543.0,1464.25,846.0,-216.0,8
-707.75,-199.0,315.75,151.25,-524.5,1807.5,927.0,197.75,8
-645.75,-802.25,215.5,43.5,-741.5,1684.0,1001.5,59.25,8
-676.75,-1069.0,105.0,254.5,-615.5,1340.5,1086.5,-147.5,8
-452.75,-795.0,60.0,353.0,-627.5,472.5,1145.0,-135.25,8
-252.25,-277.75,-59.5,414.0,-600.0,-403.5,1144.25,-261.5,8
-146.5,-58.0,-191.75,416.25,-568.0,-939.0,1063.0,32.25,8
66.5,-168.0,-353.5,198.5,-535.0,-1008.0,961.25,11.0,8
72.75,-333.5,-517.0,167.0,-388.25,-889.5,890.5,-5.25,8
116.5,-139.0,-540.5,-141.25,-219.75,-939.0,783.0,281.0,8
62.75,-25.5,-390.25,-106.75,-173.75,-885.5,724.5,1266.25,8
-6.5,-16.5,-372.5,-244.25,-466.5,-766.25,703.75,1371.25,8
36.25,106.0,-376.0,-382.0,-456.5,-614.5,674.5,1380.75,8
129.75,169.0,-176.0,-489.75,-539.0,-533.25,685.0,1608.5,8
196.75,257.25,-135.0,-541.5,-641.5,-332.0,756.5,1610.75,8
45.5,229.75,-110.0,-289.75,-735.25,-495.5,899.25,1776.5,8
43.0,305.5,-172.25,-402.0,-914.75,-853.5,1048.25,1361.5,8
-1.75,256.0,-251.25,-407.25,-694.25,-772.0,1252.5,1148.5,8
1.25,233.25,-262.75,-606.75,-985.5,-743.25,1380.5,1467.25,8
54.75,243.75,-417.25,-656.0,-1122.75,-725.0,1406.75,1632.0,8
-19.25,281.25,-500.5,-695.5,-1269.0,-705.25,1461.25,1615.5,8
137.25,298.5,-403.5,-470.0,-749.5,-493.25,1445.0,1151.0,8
32.75,56.25,-224.25,8.0,-337.0,-271.75,1370.5,375.25,8
57.25,56.5,-105.25,-16.75,-775.5,-241.5,1324.75,343.75,8
16.0,64.75,-203.25,57.5,-1189.0,-326.25,1309.75,618.5,8
-406.5,98.5,-315.0,71.25,-1548.25,-594.5,1209.0,528.5,8
-714.25,184.25,-61.25,22.5,-1245.75,-513.0,987.5,169.25,8
-785.75,201.25,103.25,15.0,-1040.75,-426.0,1005.75,-253.75,8
-398.25,131.75,276.75,338.75,-806.5,-439.0,1130.75,75.75,8
-350.0,-70.0,575.0,503.25,-895.5,-422.75,1184.0,379.0,8
-265.0,25.5,710.25,342.75,-1107.25,-547.0,1163.25,493.5,8
79.75,169.0,747.25,362.0,-1058.25,-536.0,1059.0,962.0,8
230.75,227.25,671.5,242.75,-689.5,-581.5,995.75,1295.0,8
478.75,231.0,576.25,299.0,514.75,-500.25,977.5,1506.75,8
573.75,164.5,369.0,533.5,587.5,-466.0,954.75,1114.75,8
597.75,117.5,160.25,449.75,746.5,-531.25,772.0,705.25,8
569.5,37.75,-7.75,254.25,1102.5,-577.75,492.5,397.25,8
617.5,2.75,-146.75,-68.5,961.0,-793.0,121.0,95.0,8
784.5,10.5,-309.5,-509.75,1019.75,-935.25,-506.5,30.75,8
731.0,-122.5,-495.5,-544.0,1461.5,-980.5,-1099.75,-8.0,8
600.5,-43.0,-559.0,-610.0,1044.5,-1146.25,-1058.25,-6.25,8
663.25,272.5,-547.25,-878.0,921.75,-1153.75,-1065.75,-27.75,8
649.25,306.75,-448.25,-797.25,1863.75,-965.25,-1106.0,-82.25,8
361.75,125.75,-380.25,-581.25,2265.75,-940.25,-1137.75,548.5,8
94.0,8.75,-393.75,-398.75,2281.0,-907.25,-1130.0,1698.0,8
-43.0,-14.5,-296.75,-92.75,2371.25,-849.5,-1130.5,1605.0,8
75.5,-17.0,-140.25,-158.5,2136.0,-887.25,-1186.5,1660.75,8
-9.25,-65.5,-72.75,-149.75,2216.25,-875.0,-1194.25,2042.75,8
-328.0,-90.0,-60.0,-146.75,1928.5,-1015.5,-1168.75,2103.0,8
-415.0,-41.5,-237.75,-101.75,2024.25,-966.25,-1217.25,1566.5,8
-484.25,-69.0,-297.5,137.75,2139.25,-920.0,-1265.75,1162.75,8
-293.75,-20.25,-43.75,-110.75,1611.25,-1023.0,-1239.75,683.75,8
-123.0,-45.25,166.25,-9.0,1557.0,-913.0,-1173.5,437.25,8
-48.75,-85.0,303.75,78.0,32.5,-874.5,-936.0,332.5,8
56.75,-30.0,270.75,44.0,-878.5,-840.5,-816.75,138.25,8
11.5,-128.5,203.5,209.25,-750.25,-701.5,-810.25,-29.75,8
-48.5,-78.75,208.0,348.25,-924.0,-707.75,-875.25,-159.5,8
-114.25,-73.75,229.5,701.0,-905.5,-711.25,-1032.5,-413.5,8
-183.0,-216.25,226.75,730.0,-764.75,-775.5,-1132.25,-334.25,8
-239.75,-176.75,-1.25,392.75,-1189.0,-985.0,-1101.5,-484.25,8
-79.0,-27.75,-254.0,46.25,-1394.75,-829.5,-1036.5,-668.75,8
-86.5,-106.5,-257.5,-69.5,-946.0,-555.5,-990.0,-626.75,8
-235.25,-151.75,-140.5,-431.25,-1260.75,-613.0,-904.75,-313.0,8
-198.0,-50.75,-83.75,-578.25,-1353.5,-762.25,-935.0,-279.0,8
-266.5,-103.0,-39.25,-486.5,-1435.75,-907.0,-936.5,-535.75,8
-162.75,31.25,-15.5,-631.5,-1870.5,-948.75,-972.75,-391.25,8
12.0,20.0,42.25,-174.75,-1250.5,-779.5,-1041.25,-203.25,8
20.75,-83.5,155.25,-110.0,-1210.0,-887.25,-1059.5,-792.5,8
20.0,52.5,203.5,-382.0,-1540.75,-1070.5,-851.0,-1234.0,8
-11.5,144.5,185.0,-191.75,-1356.25,-1163.75,-449.0,-997.0,8
98.25,261.0,182.75,-219.0,-1653.75,-1473.75,-107.25,-820.5,8
191.75,276.0,181.0,-329.5,-1783.25,-1116.5,305.0,-614.25,8
159.0,304.25,184.5,-371.25,-2034.75,-606.75,853.0,399.25,8
193.25,339.5,154.0,-421.0,-2232.5,-286.75,1186.25,1319.0,8
239.75,303.75,68.25,-270.5,-1961.75,125.5,1163.75,1380.0,8
272.25,336.75,-53.0,-136.0,-2035.75,-46.0,1276.75,1838.5,8
769.25,714.5,-324.5,-278.5,-2424.0,-190.75,1534.5,1793.25,8
1002.0,682.75,-394.25,-2.0,-2392.0,303.0,1223.5,1659.0,8
937.5,464.75,-118.0,250.25,-2170.5,366.0,699.5,781.5,8
828.75,516.0,-71.0,116.5,-2079.75,-38.25,415.0,1087.0,8
142.25,214.75,38.5,359.5,-1440.0,65.25,294.0,1297.0,8
-303.0,84.0,76.5,380.75,-1393.0,-52.0,406.25,1166.5,8
-396.25,11.0,-134.5,-24.5,830.5,81.25,274.5,978.75,8
-452.0,-157.75,-283.25,-327.5,820.25,603.5,176.5,656.25,8
-158.75,-114.75,-690.25,-30.0,892.0,1085.25,131.25,449.75,8
6.5,-256.0,-1157.75,36.75,1022.0,1324.5,-1.5,-87.25,8
211.5,-258.5,-1026.75,30.25,1061.25,1585.75,-166.75,-446.75,8
288.0,-322.0,-470.5,256.75,1053.75,2074.5,-404.75,-645.75,8
190.25,-432.25,-170.75,329.5,1021.0,2377.75,-529.5,-743.5,8
-220.5,-761.75,383.75,644.75,1058.5,2736.0,-712.25,-564.75,8
-1026.25,-968.25,591.25,721.75,1051.0,2770.75,-750.75,-550.5,8
-1087.25,-853.5,499.5,739.25,1073.75,2449.25,-569.75,-664.75,8
-913.25,-743.75,440.25,657.25,1046.0,1641.0,-288.25,-1068.5,8
-869.0,-670.5,274.0,600.25,539.25,1325.0,-98.5,-1150.5,8
-503.75,-612.0,220.0,661.75,-1231.0,1134.0,81.5,-834.0,8
27.5,-571.0,508.75,824.25,-1405.0,729.25,244.25,-780.25,8
431.5,-452.5,937.25,737.0,-1646.0,863.0,416.5,-419.25,8
265.5,-424.75,992.75,630.5,-1863.5,1670.0,677.0,206.25,8
-466.75,-427.25,1138.5,609.5,-444.5,1718.5,981.0,820.0,8
-504.25,-383.25,1040.5,426.5,-319.25,1471.75,1144.25,1259.25,8
-856.5,-450.5,938.25,392.5,-143.25,1137.25,1269.5,1259.0,8
-1230.0,-392.25,665.5,335.0,-558.5,619.25,1318.0,1262.75,8
-1031.25,-267.75,494.0,407.0,-2168.5,381.25,1299.5,1197.0,8
-1034.75,-172.25,478.0,428.25,-1643.5,342.75,1305.25,1178.5,8
-894.0,-87.25,305.5,328.25,-299.75,687.0,1162.75,1241.5,8
-202.75,-32.25,99.5,239.75,-361.0,1445.0,1018.75,1303.5,8
210.75,-28.5,-99.75,217.75,-301.25,1549.0,952.0,1237.25,8
137.5,31.5,-92.75,310.0,-207.25,1214.0,859.5,1156.25,8
-6.25,99.75,-203.25,349.0,-15.75,679.0,746.5,1154.0,8
-46.25,132.0,-295.0,274.0,168.0,-262.5,676.0,832.5,8
-78.75,241.5,-426.25,121.5,248.5,-1592.5,625.5,428.5,8
-112.0,280.5,-482.75,107.75,-976.75,-2268.0,375.0,123.5,8
-270.5,268.75,-569.0,12.5,-1522.75,-2152.5,23.75,-185.5,8
-458.75,238.0,-570.0,-113.0,-1316.25,-2164.0,-182.0,-620.75,8
-852.75,219.25,-479.5,-225.0,-1098.0,-2465.0,-321.75,-998.0,8
-1014.75,204.0,-421.5,-219.25,-1050.75,-2367.75,-464.75,-1334.5,8
-1244.25,202.0,-368.75,-110.25,-1142.25,-2250.75,-813.25,-1845.0,8
-1099.25,187.0,-436.75,-80.75,-1223.75,-2132.25,-1019.5,-1926.0,8
-666.0,173.0,-367.75,-64.0,-1221.0,-1605.25,-571.5,-1956.5,8
-333.25,159.0,-335.5,-148.5,1000.25,-1562.75,-77.75,-1974.75,8
174.75,135.0,-217.25,-158.75,1428.25,-1706.5,111.5,-1976.0,8
643.25,185.0,-120.25,-72.0,1730.75,-1713.25,-25.5,-1652.25,8
968.75,257.5,-204.75,-173.25,1654.75,-2008.75,-479.25,-1363.75,8
1346.75,358.5,-260.0,-248.25,1380.0,-2046.5,-705.5,-1362.0,8
1619.25,321.5,-293.25,-377.75,1324.5,-1839.25,-765.0,-1231.25,8
1366.25,236.5,-369.25,-678.0,1323.0,-1382.0,-802.5,-938.5,8
838.75,175.25,-423.5,-772.5,1455.75,-962.0,-845.0,-573.5,8
15.75,134.5,-213.5,-806.75,1485.0,-647.0,-896.25,-384.25,8
-514.0,114.75,-37.25,-493.25,-377.0,-352.25,372.0,-425.25,8
-773.0,62.75,29.75,-155.75,-163.5,-245.5,1153.25,-353.5,8
-1006.75,122.0,48.25,-326.75,-275.75,-379.25,1151.0,-314.0,8
-472.0,126.75,46.75,-383.0,-539.0,-544.5,1137.5,-49.75,8
-77.5,150.25,89.25,-458.0,-813.25,-442.75,1125.25,-4.25,8
527.25,178.0,95.5,-402.25,1029.5,-406.25,1065.0,-10.0,8
1099.0,171.5,131.25,-311.25,714.75,-349.75,1010.0,-66.75,8
1326.5,219.25,81.5,-286.5,722.5,-396.75,937.75,-101.5,8
1362.75,186.25,105.25,-44.25,1076.25,-540.0,930.0,69.0,8
1065.0,156.0,137.25,-17.75,1242.75,-740.0,937.75,118.75,8
738.75,131.5,134.5,-93.5,1285.25,-894.75,628.5,218.0,8
516.75,93.75,137.0,-178.75,1358.5,-515.0,-98.75,303.25,8
423.75,98.75,46.0,-292.75,1441.0,11.25,-742.75,437.75,8
297.5,100.75,-47.25,-696.0,1346.25,501.0,-1264.5,598.0,8
303.25,111.25,-99.0,-1290.25,1345.5,566.75,-1380.25,719.25,8
173.5,127.25,-17.75,-1268.75,1357.25,392.5,-1378.5,575.5,8
133.5,140.25,140.5,-472.5,1424.25,389.0,-1209.25,395.0,8
153.5,119.25,198.75,13.5,1604.75,312.5,-1058.5,399.5,8
80.5,89.0,127.5,-172.5,1437.5,731.0,-960.25,153.75,8
100.0,87.25,55.75,-142.75,1575.5,880.75,-886.0,-106.5,8
95.25,57.75,-20.25,-130.75,673.5,822.0,-860.0,-468.0,8
156.5,31.5,-79.0,-92.0,84.25,886.25,-804.0,-745.25,8
231.0,-44.5,-164.25,-98.0,-64.0,879.75,-854.5,-742.5,8
266.25,-55.5,-305.75,-166.5,-157.75,904.25,-913.75,-633.25,8
190.75,-30.0,-457.5,-176.5,-208.0,747.25,-916.0,-582.0,8
86.25,-59.0,-548.0,-60.0,-274.0,689.5,-779.5,-659.0,8
-17.0,-22.0,-718.5,-1.0,-234.75,770.0,-703.5,-373.75,8
-116.75,-6.75,-1016.25,-136.75,-166.0,868.5,-886.75,-65.0,8
-231.25,4.0,-1140.75,-317.75,-307.0,924.75,-821.0,49.25,8
-248.75,0.0,-1199.75,-592.0,-229.5,976.25,-880.75,90.75,8
-260.75,3.0,-1164.5,-770.75,-337.75,982.5,-1046.5,20.25,8
-156.75,32.25,-401.5,-668.25,-410.75,1074.0,-694.5,-229.75,8
110.0,37.5,448.25,-426.25,-463.0,1270.75,-109.5,-453.75,8
201.75,25.75,916.75,-110.5,-578.0,1284.25,137.75,-490.5,8
304.75,29.25,962.0,264.25,-664.5,1114.75,-101.5,-632.25,8
383.5,65.75,1056.25,451.75,-767.5,811.0,-325.5,-715.25,8
433.25,101.0,1086.75,602.25,-778.0,598.0,146.25,-861.75,8
452.5,108.5,1060.25,467.25,-669.5,456.0,293.75,-884.0,8
350.5,88.5,839.25,454.25,-977.0,452.75,243.0,-516.25,8
232.0,77.5,578.75,368.0,-1483.75,510.25,175.5,-256.5,8
119.5,60.75,188.5,-81.0,-1710.25,553.0,99.75,-98.25,8
169.0,49.5,-165.0,-429.5,-1847.25,644.5,-160.5,-152.75,8
267.0,32.25,-317.25,-403.75,-1826.25,699.0,-795.0,-222.0,8
328.0,62.75,-288.0,249.5,-1809.75,773.25,-767.0,-249.25,8
458.25,85.25,-301.25,301.5,-1660.5,904.5,-636.0,-369.75,8
548.0,74.25,-385.25,67.75,-1658.0,980.0,-524.25,-424.5,8
550.5,129.25,-409.5,-113.0,-1731.5,1093.0,-586.25,-368.25,8
522.5,137.25,-643.0,-793.25,-1783.75,1229.0,-935.25,-252.25,8
475.25,129.0,-928.25,-1113.0,-1760.25,1284.5,-459.75,-178.0,8
396.5,120.75,-981.25,-672.25,-1763.75,1311.75,725.25,-215.0,8
414.0,150.0,-985.75,411.25,-1957.0,1223.75,1871.75,-233.25,8
568.0,188.0,-1079.0,278.0,-2182.75,879.0,2109.75,-60.75,8
584.0,256.5,-1156.75,-168.75,-2615.75,463.75,1856.75,245.25,8
582.5,410.0,-1190.25,-305.0,-2557.5,4.0,1701.25,619.5,8
536.5,445.75,-1166.5,-662.25,-2218.5,-219.25,1908.5,1009.5,8
249.75,378.25,-953.75,-548.75,-1837.25,42.75,1460.25,1460.0,8
-277.25,324.25,-360.5,-249.75,-1481.5,302.25,638.25,1760.0,8
-1234.25,277.0,605.5,-204.25,-870.75,436.0,199.0,1680.5,8
-1809.0,224.5,1405.0,-27.25,-556.0,588.0,122.25,1398.0,8
-1834.25,291.5,1715.25,547.25,-72.0,769.25,93.25,1382.5,8
-1405.25,193.5,1626.25,626.75,731.5,1146.75,-12.0,1263.25,8
-1053.25,13.75,1618.25,69.75,722.0,1367.0,258.5,1023.0,8
-622.75,-72.0,1188.75,-394.0,651.25,1547.25,371.5,990.75,8
-194.5,-148.0,655.75,-709.0,840.25,1653.0,234.5,585.5,8
-46.75,-221.25,432.75,-88.5,1872.5,1548.75,214.0,234.5,8
-110.5,-280.25,326.5,274.5,2450.5,1371.0,-68.75,296.75,8
-674.75,-292.75,519.5,418.0,2368.25,1203.25,-194.25,290.75,8
-723.75,-270.5,497.0,838.75,2342.0,979.5,-306.5,379.0,8
-76.75,-198.75,474.5,505.75,2282.5,554.0,-493.25,650.5,8
482.0,-127.25,410.75,341.75,2268.25,104.75,-853.5,893.25,8
1064.75,-123.5,199.75,82.0,2232.75,-365.25,-979.0,866.75,8
1321.25,-148.5,127.75,312.75,2239.75,-459.5,-1021.0,845.25,8
1285.75,-172.75,126.75,856.0,2231.75,-567.75,-668.25,516.0,8
1057.5,-337.25,33.5,1016.75,2210.75,-632.5,-352.75,124.0,8
184.0,-778.5,-127.25,934.75,2196.75,-439.75,-521.5,-340.75,8
-684.75,-825.0,-265.25,541.25,2174.5,-511.5,-178.75,-927.25,8
-893.25,-758.5,-388.0,615.0,2168.25,-618.0,558.0,-801.75,8
-788.5,-846.0,-443.0,1002.25,1248.0,-793.0,892.5,-1029.5,8
-998.25,-827.5,-451.0,861.25,540.0,-992.25,1268.0,-1053.75,8
-753.5,-700.5,-397.5,765.25,53.25,-1095.0,1234.5,-979.25,8
-783.0,-477.5,-23.5,1118.75,-249.75,-1055.5,1002.0,-1132.75,8
-629.25,-335.0,429.75,1045.0,-255.25,-963.5,787.0,-764.5,8
-519.75,-330.5,704.75,1117.0,-262.25,-951.0,560.75,-834.75,8
-489.25,-135.25,645.75,640.25,-430.75,-1192.75,256.25,-913.25,8
-303.0,-120.75,671.0,601.75,-736.0,-1090.0,-463.75,-1138.25,8
-279.75,-52.25,607.75,527.5,-787.0,-952.25,-1209.75,-970.75,8
-141.0,-63.0,266.25,162.25,-815.5,-923.25,-1889.0,-736.75,8
-147.75,-49.25,-26.75,298.5,-835.75,-832.75,-2009.0,-1115.25,8
-79.5,-33.0,-306.25,-58.75,-828.25,-727.25,-1952.0,-1272.25,8
-109.25,-82.5,-588.5,-542.25,-821.75,-722.5,-1462.0,-1132.5,8
-56.25,-87.75,-825.75,-560.5,-776.0,-844.5,-747.0,-498.5,8
-55.0,-123.0,-1023.25,-504.25,-689.25,-1074.0,-997.0,387.0,8
-34.0,-82.75,-1324.75,-1252.0,-349.25,-1044.75,-1063.75,590.5,8
65.75,-60.25,-1304.5,-1056.25,-12.75,-800.75,-857.75,523.5,8
117.75,-1.5,-921.25,-328.5,-1844.25,-496.75,-1098.75,505.25,8
178.75,55.25,-659.25,-364.5,-1651.25,-168.5,-1028.5,597.5,8
173.75,70.25,-341.5,-231.5,-1688.0,308.75,51.25,729.25,8
73.5,66.75,255.0,-62.25,-1892.75,813.75,784.75,896.5,8
-106.5,83.75,741.0,-61.5,-2163.5,1112.0,612.5,861.25,8
-130.75,128.5,913.75,121.25,-2286.75,1258.5,1051.5,562.5,8
-267.0,205.25,970.0,194.5,-2219.0,1472.75,1327.25,553.75,8
-362.25,255.0,965.0,136.5,-2138.5,1703.0,1089.25,-106.0,8
-268.25,292.0,870.5,117.75,-2081.0,1772.75,1034.5,-123.25,8
-165.0,351.0,791.5,169.5,-2135.5,1549.0,1340.0,-116.25,8
60.75,373.75,264.25,337.75,-163.5,1216.25,1367.0,-129.0,8
335.25,373.5,-527.25,340.5,-89.25,685.25,780.25,-127.75,8
487.25,347.75,-1300.75,441.75,6.25,-49.0,228.25,-94.5,8
490.0,275.75,-1298.25,609.0,-13.75,-182.0,242.75,756.0,8
323.0,179.75,-1222.75,354.25,-147.5,-158.75,638.75,815.25,8
82.25,154.0,-1146.0,-110.5,-293.0,-120.0,622.75,412.25,8
-60.5,107.5,-1145.0,-365.75,-222.5,-136.75,393.25,-287.25,8
-28.25,29.25,-1041.75,-436.75,-3.0,-223.5,650.75,-557.0,8
-28.25,21.0,-1064.0,-334.0,71.25,-373.75,1192.5,-841.0,8
-30.75,41.75,-1144.75,-521.25,126.75,-598.75,1719.25,-1162.0,8
-52.5,81.75,-1129.5,-682.75,494.5,169.0,2002.75,-1473.25,8
24.5,115.25,-999.0,-330.0,740.25,976.0,1173.0,-1159.25,8
149.25,108.25,274.25,-406.0,814.5,837.0,231.25,-1240.75,8
26.75,116.75,1049.5,-1000.75,926.25,721.5,-133.5,-1154.75,8
-1.25,63.75,1167.25,-945.75,1388.25,740.25,-252.5,-908.5,8
-121.5,-113.75,1231.0,-256.75,1595.25,830.75,-612.75,-1019.5,8
-219.0,-212.5,1119.0,-402.5,1921.0,1121.75,-1139.0,-792.0,8
-57.25,-189.75,897.5,-419.25,2230.25,1285.25,-1395.0,-772.0,8
49.0,-116.5,-585.25,-220.5,2514.5,1180.25,-1407.25,-882.25,8
86.75,-89.5,-290.5,-124.25,2664.25,1034.25,-1218.25,-1090.5,8
80.75,-130.5,232.25,-55.0,1886.5,860.5,-783.0,-1229.25,8
61.0,-157.0,763.75,-159.0,505.25,818.25,-233.25,-1262.0,8
76.75,-132.75,868.5,-229.75,366.5,725.0,29.25,-1646.25,8
119.25,-30.5,872.75,-129.0,298.5,660.25,79.75,-1878.5,8
59.25,78.0,865.5,85.0,283.0,865.25,31.5,128.25,8
123.0,159.75,736.0,-32.75,292.0,1083.25,-185.5,639.5,8
10.25,204.75,764.25,-212.75,277.5,1231.5,-714.5,894.75,8
-306.25,251.75,1070.0,166.5,833.25,1391.5,-1472.25,723.5,8
-232.75,329.0,1037.75,285.75,1567.25,1123.5,-1446.75,999.75,8
-332.0,372.25,275.75,-384.75,2245.0,-603.25,-834.25,1106.75,8
-530.0,339.75,-512.75,-633.75,2221.75,-620.0,-528.0,1024.0,8
-264.0,258.25,-875.75,-352.5,2189.5,-649.25,-575.75,487.75,8
59.75,114.0,-1000.25,-502.0,2140.0,-813.0,-605.75,106.0,8
160.5,-120.25,-1093.0,-951.5,2069.25,-1124.5,-656.0,102.75,8
50.0,-294.0,-936.0,-61.75,2036.25,-1202.0,-729.5,746.5,8
98.25,-248.0,-787.0,912.75,1341.75,-1094.75,-543.75,1424.25,8
75.0,-147.0,-998.25,465.75,-67.5,-972.75,-618.75,1670.0,8
-10.75,-245.25,-805.5,200.75,-1799.0,-823.5,-881.25,1901.5,8
569.5,-357.75,-364.75,147.5,-2090.0,-937.25,-1003.25,1944.5,8
780.0,-339.0,-48.25,201.75,-2219.5,-998.5,-976.25,1986.25,8
657.25,-276.75,-518.25,221.25,-2267.75,-610.0,-1546.75,2083.5,8
615.75,-287.25,-974.0,350.75,-2222.0,1626.25,-1760.5,2100.5,8
269.25,-270.5,-938.25,569.25,-2185.5,1286.75,-1969.25,1826.0,8
1.5,-212.25,-945.25,157.75,-2147.75,979.0,-2019.75,1612.5,8
-331.0,-184.5,-427.0,-101.25,-2072.25,880.25,-2040.75,914.25,8
-427.75,-112.0,90.25,-629.0,-1983.25,861.0,-2076.75,-258.5,8
-464.75,-57.75,153.5,-754.5,-1912.25,950.0,-2044.75,-466.5,8
-445.25,-5.25,67.0,-110.0,-1853.5,853.25,-1063.5,-174.0,8
-292.5,38.5,164.25,-84.5,-1819.5,814.75,438.25,-103.0,8
-274.25,57.75,310.25,-730.75,-1792.0,-1158.0,965.0,-228.75,8
-136.0,130.25,399.25,-739.5,-1784.25,-1185.0,1366.75,-344.5,8
-38.5,212.75,415.5,713.0,-1777.75,-1281.0,1721.25,-449.75,8
57.25,254.0,232.75,711.75,-1757.75,-1374.5,1952.25,-460.0,8
58.0,279.0,54.5,451.25,-1744.75,-1338.25,1206.25,-435.75,8
-54.75,295.5,-154.75,522.75,-1717.5,-1344.5,207.75,-353.5,8
-199.0,296.5,-232.75,118.5,-1700.5,-1283.25,63.0,-595.75,8
-447.0,320.25,-204.25,601.75,-1670.75,-1123.5,-247.25,-817.5,8
-395.75,282.25,-233.75,506.25,-1668.25,-991.75,-419.25,-1017.5,8
-220.0,195.0,-224.75,404.0,-1653.75,-951.5,-264.0,-966.5,8
-131.5,180.75,-117.0,11.0,-1645.0,-908.5,422.75,-1092.25,8
8.5,171.0,-45.5,-234.0,-1649.0,-734.0,1533.0,-1547.75,8
175.75,180.5,-239.25,-35.75,-1654.25,-580.0,1708.0,-1455.75,8
260.75,168.5,-284.0,-231.75,-1682.25,-538.5,1702.0,-1409.0,8
59.25,62.75,8.25,196.0,-1525.75,-485.0,1515.25,-1248.0,8
-318.25,30.75,186.25,345.75,-1249.75,-488.75,1133.25,-960.5,8
-293.75,6.75,104.25,100.25,-906.25,-490.25,471.25,-945.25,8
174.75,-53.25,44.25,143.75,-466.0,-496.5,-44.75,-1178.25,8
439.75,-62.25,-35.75,-193.25,-37.75,-553.0,289.75,-759.5,8
635.5,-38.0,-106.75,-143.0,149.5,-620.0,187.0,-88.5,8
553.0,-40.0,-30.5,62.0,143.0,-710.5,364.0,-176.25,8
325.25,-59.25,16.0,-119.25,128.75,-846.0,606.0,298.5,8
437.75,-7.0,36.0,-219.0,100.5,-1026.5,788.25,445.25,8
428.75,48.0,21.5,-487.5,73.25,-1181.25,1005.75,262.5,8
479.0,39.25,-0.5,-703.5,29.5,-1040.5,1377.25,235.5,8
383.75,34.75,97.5,-420.25,-26.0,-835.5,1477.0,626.25,8
69.25,2.75,183.0,217.25,34.5,-785.75,1569.75,956.5,8
-124.5,-63.5,325.75,362.0,1163.25,-802.25,1419.75,949.25,8
-297.75,-82.25,356.0,219.25,1900.75,-564.25,1401.5,952.25,8
-397.25,-11.25,258.75,614.75,1936.0,-272.75,965.5,932.75,8
-407.75,-37.0,318.5,761.5,1968.25,33.0,615.75,1290.25,8
-311.5,-30.0,137.25,112.5,1962.25,338.5,579.25,1626.0,8
-311.5,107.5,-151.25,-626.75,1944.25,626.0,298.25,1501.5,8
-359.75,2.25,-237.75,-612.75,1923.5,786.75,-103.25,1547.0,8
-375.25,-125.25,-127.25,19.25,1897.25,902.5,-389.75,1308.75,8
-438.25,-109.0,25.5,-224.75,1885.0,938.5,-640.0,620.75,8
-542.5,-143.0,71.25,-166.5,1891.5,870.75,-714.25,-196.5,8
-491.5,-170.5,171.5,202.75,1888.25,880.75,-352.5,-226.5,8
-182.75,-173.0,102.25,-568.25,1886.5,830.0,39.5,-249.5,8
34.25,-163.0,170.75,-685.0,1889.5,696.5,-57.75,-303.75,8
87.75,-169.25,220.75,-357.75,1891.25,584.75,-317.5,-347.5,8
63.5,-215.25,-46.75,178.75,1890.25,569.25,-917.5,-350.0,8
70.0,-130.5,-358.0,-252.5,1876.0,567.5,-1332.75,-319.25,8
-8.75,-42.25,-544.25,-173.0,1867.5,523.75,-1543.25,-313.0,8
-111.25,-1.25,-332.0,605.5,498.0,626.75,-1634.25,-329.75,8
-241.25,8.25,-164.0,1120.0,-136.0,619.0,-1394.75,-383.0,8
-318.5,-22.0,-148.25,1137.0,-211.25,582.75,-1466.0,-422.75,8
-148.25,29.5,-4.25,830.25,-412.25,551.5,-1097.25,-475.5,8
143.0,78.75,-6.25,380.25,-658.25,564.25,109.0,-515.75,8
498.75,171.5,243.25,-622.75,-808.25,689.0,1193.25,-527.25,8
696.75,166.5,506.25,-953.75,-985.25,790.25,1267.0,-556.75,8
684.0,106.5,600.5,-1072.5,-1183.0,771.5,826.25,-565.5,8
537.75,114.75,641.75,-21.0,-1352.0,787.0,819.25,-557.75,8
314.5,72.0,426.25,491.0,-1588.0,842.0,817.0,-515.0,8
92.75,52.25,240.75,341.5,-1769.75,926.5,778.25,-266.75,8
-165.25,17.75,79.25,249.25,-1882.5,512.25,539.5,-188.0,8
-363.75,77.75,-27.75,307.75,-1859.5,408.25,686.5,-351.75,8
-445.25,142.75,-142.0,176.75,-1312.25,575.5,631.25,-722.25,8
-502.25,126.75,-224.0,109.5,-894.5,310.5,414.25,-361.0,8
-482.5,141.0,-207.75,-372.0,-628.25,386.75,587.75,-173.75,8
-197.0,103.75,-61.0,-964.25,-416.5,307.0,283.25,-235.75,8
-7.75,-30.0,153.75,-594.0,-243.5,50.5,1.0,-230.25,8
69.25,-260.25,211.25,251.5,-28.25,30.25,52.0,-144.75,8
28.5,-434.5,149.5,517.5,-10.75,53.5,-21.25,-32.75,8
115.25,-347.5,2.75,282.25,0.5,174.0,167.25,51.75,8
426.5,-184.0,-67.0,542.0,-32.0,52.0,548.25,70.25,8
724.0,-99.75,-44.0,-31.5,-368.25,107.5,1145.75,112.5,8
1238.5,182.75,194.25,-1149.0,-542.25,155.25,1386.0,57.75,8
1270.75,487.0,264.75,-900.75,-188.5,166.0,1453.25,-320.75,8
1084.75,458.0,155.75,-482.0,153.25,257.5,1524.25,-565.5,8
789.25,390.75,274.25,-938.25,367.5,361.75,1521.25,-672.25,8
533.5,382.5,127.25,-1104.25,669.5,434.5,1363.25,-695.75,8
517.0,428.25,74.75,-669.0,899.0,533.5,1220.75,-515.75,8
566.0,568.5,105.0,282.75,1213.5,754.5,1007.5,-262.75,8
344.75,515.5,-20.75,405.0,1553.5,859.25,934.5,-140.5,8
54.75,354.25,-129.5,84.75,1972.0,809.5,817.25,-39.0,8
-192.5,229.75,-272.5,116.75,2277.5,461.0,794.5,-110.25,8
-248.25,84.75,-255.5,265.5,2344.75,815.0,509.0,-20.5,8
-454.25,-18.75,-277.0,594.5,2444.0,1021.25,378.25,104.0,8
-435.75,-54.0,-422.25,333.75,2475.75,923.75,148.25,63.75,8
-296.25,-36.75,-636.0,179.75,2536.5,742.75,-34.5,-411.75,8
-362.75,-82.5,-624.75,-242.0,2535.5,804.0,-288.0,-811.25,8
-502.0,-321.0,-258.75,6.75,2569.75,879.75,-336.0,-1149.0,8
-501.25,-559.75,168.0,541.25,2576.75,930.5,46.5,-1382.5,8
-481.5,-522.75,264.25,598.25,2600.75,1040.0,316.25,-1080.25,8
-634.25,-279.0,85.5,1033.25,1482.25,1009.5,320.75,-574.75,8
-491.25,-123.25,4.25,871.0,585.5,814.75,275.25,-298.25,8
-390.75,-129.5,-30.25,941.0,567.5,517.0,430.5,-10.5,8
-310.0,-84.0,-94.25,887.75,525.75,403.0,519.25,192.25,8
-239.5,-24.25,-142.25,655.5,507.25,255.0,312.75,434.0,8
-332.75,-22.75,-55.5,54.5,424.75,224.25,-273.5,722.25,8
-617.75,-69.0,30.5,-659.0,341.75,327.5,-734.75,1079.0,8
-749.5,-80.0,154.5,-704.0,280.0,504.0,-1234.0,1391.75,8
-560.25,-97.0,349.0,133.75,242.0,811.25,-1277.5,1625.0,8
-529.0,-171.5,283.25,536.0,194.75,1162.75,-1223.75,1674.0,8
-341.75,-193.25,-82.75,-183.75,251.5,1126.5,-1259.5,1882.75,8
-199.5,-176.25,-315.75,44.25,335.75,1056.25,-1267.5,2195.25,8
-13.75,-170.75,-324.5,422.5,269.0,952.0,-1186.75,2207.75,8
46.75,-190.5,-407.5,210.75,188.5,734.5,-1061.75,2304.75,8
-9.25,-184.5,-289.5,452.0,52.5,675.0,-965.25,2159.0,8
11.25,-213.25,-44.5,376.5,-29.75,609.5,-867.75,1847.0,8
-80.0,-335.75,193.25,458.5,137.5,731.0,-896.5,2111.25,8
-234.75,-589.5,310.75,474.5,452.0,1138.75,-1034.0,2275.25,8
-607.75,-591.25,94.75,963.25,680.75,1493.0,-1269.5,1415.25,8
-637.5,-513.75,-626.25,816.0,756.0,1525.25,-1345.0,406.5,8
-708.0,-482.0,-1248.25,160.5,706.5,1612.25,-1231.75,366.5,8
-1235.0,-408.25,-1114.5,215.25,381.5,1848.25,-1157.25,117.75,8
-1274.25,-349.5,-1012.5,13.75,624.5,1756.75,-997.75,393.5,8
-902.0,-261.5,-326.0,-691.75,823.5,1429.25,-858.75,533.75,8
-377.75,-134.25,356.25,-889.25,909.0,1308.5,-796.0,529.0,8
262.0,-61.25,772.25,-523.25,946.5,1285.25,-700.0,809.5,8
900.5,26.0,1168.0,-902.5,1072.75,1165.25,-687.5,1122.0,8
1102.25,-23.75,1016.25,-754.75,1370.25,886.75,-594.25,1766.0,8
1080.75,30.5,878.5,-172.75,1359.25,405.5,-548.0,2114.25,8
1101.25,74.0,262.5,-167.25,1517.5,-119.25,-528.5,1802.25,8
1002.75,153.0,199.0,-135.25,1427.0,-113.0,-464.0,1186.25,8
636.0,53.0,259.5,-511.5,1363.25,-191.25,-405.5,774.0,8
327.5,-77.5,149.75,-731.25,1313.0,-813.75,-197.25,-185.75,8
474.0,311.75,589.25,-1087.75,816.75,-1499.5,369.0,-677.5,8
896.25,945.0,1000.25,-850.5,515.25,-698.0,457.75,-1059.5,8
800.25,966.75,763.75,-667.0,433.25,-511.75,573.25,-1199.25,8
770.0,922.0,245.0,-1000.25,29.0,-1156.25,800.5,-1058.75,8
728.75,996.75,-36.5,-624.75,-17.5,-1817.75,882.25,-1104.0,8
493.5,866.75,-541.75,-480.5,540.0,-848.5,997.25,-1043.25,8
445.75,660.5,-832.25,-643.25,411.25,-159.25,962.75,-1226.0,8
397.25,468.5,-1189.0,-630.5,308.75,260.75,907.0,-1346.75,8
205.0,106.5,-894.0,-535.75,1031.75,551.75,1152.0,-1428.0,8
-180.75,-51.25,-339.5,-76.25,718.5,500.5,1379.25,-1589.5,8
-546.25,-53.5,-21.75,88.0,-270.5,202.25,1415.0,-1915.0,8
-685.0,137.0,396.0,300.75,-350.75,128.5,1348.75,-2361.0,8
-729.25,133.5,394.25,152.25,-864.75,-242.0,1310.25,-2372.75,8
-605.75,184.5,373.0,12.75,-1156.5,-105.0,1313.25,-1960.5,8
-549.25,154.25,220.25,145.0,-937.75,241.75,1251.75,-1470.75,8
-773.0,-298.75,59.0,344.0,-769.75,595.0,513.75,-581.25,8
-1811.25,-787.75,-465.5,886.25,-665.0,754.0,2.0,-402.25,8
-1943.25,-752.25,-867.5,732.25,-802.0,556.5,-316.75,-647.5,8
-1620.5,-604.25,-872.0,388.25,-765.25,374.5,-460.25,-573.25,8
-1498.25,-588.25,-996.0,754.0,-849.75,322.5,-620.25,-994.75,8
-695.25,-354.5,-501.0,939.25,-1296.75,97.25,-402.75,-1162.0,8
36.0,-423.0,-267.5,835.25,-1596.75,-80.0,-213.0,-950.25,8
601.0,-308.0,-1030.5,681.25,-1957.25,-477.75,-154.75,-967.5,8
744.0,-238.0,-1083.75,405.5,-1965.25,-507.0,61.75,-436.75,8
760.75,-223.0,-497.25,164.0,-1667.25,-85.5,226.75,174.0,8
844.5,-215.0,720.5,-266.5,-1167.75,-123.0,217.75,471.75,8
832.5,-150.0,982.0,-212.0,-895.5,-1334.5,-25.0,394.75,8
935.25,48.0,929.0,-14.25,-821.75,-2031.25,-149.25,421.0,8
786.0,17.75,755.75,55.75,-806.75,-2106.75,-96.0,368.25,8
235.0,93.75,751.0,79.0,-709.5,-2148.75,-11.25,291.75,8
-29.5,91.5,378.5,-173.5,-429.5,-2120.25,269.5,277.75,8
-51.5,79.25,32.25,-225.5,-129.5,-1581.25,437.5,322.75,8
-91.5,103.75,135.0,-204.75,170.5,-930.75,570.75,449.25,8
-285.75,81.0,202.25,-330.0,-177.5,-553.5,758.5,550.75,8
-454.25,25.25,-107.0,-573.0,392.0,-469.75,926.25,338.75,8
-584.75,-54.0,140.75,-367.75,712.5,-314.25,1113.75,-162.0,8
-578.25,-70.0,855.75,-170.5,747.5,-314.75,1405.25,-515.75,8
-510.25,-48.5,984.25,-210.25,1016.5,-150.75,1627.25,-267.5,8
-423.75,-37.75,997.25,-95.25,933.75,-46.5,1808.5,233.25,8
-394.25,-25.25,683.5,-88.0,784.0,366.5,1899.0,-188.5,8
-328.5,57.75,380.0,77.75,838.0,1035.75,1991.75,-868.75,8
-227.25,161.25,233.5,192.0,1002.0,1041.5,2101.25,-1761.5,8
-186.0,198.25,69.75,274.5,1178.5,753.0,2211.0,-1797.5,8
-321.0,178.25,-16.75,301.75,1293.75,751.25,2271.75,-997.5,8
-552.75,223.5,-243.0,143.5,895.5,341.75,2284.0,-63.75,8
-685.5,287.0,-244.75,-121.25,-52.75,-460.0,2467.0,841.5,8
-319.0,505.0,198.0,-415.0,-983.5,-660.5,2424.5,336.25,8
-47.75,745.0,322.25,-348.5,-1059.0,-592.0,2170.5,-737.75,8
159.0,680.0,-152.0,73.25,-1055.25,-997.75,1958.25,-961.75,8
668.5,698.0,-244.5,117.5,-1162.75,-1172.0,1796.75,-1517.75,8
882.25,682.5,-423.25,-242.5,-1155.25,-620.75,1512.5,-2052.0,8
817.25,549.0,-693.75,132.75,-1227.75,-818.5,1371.25,-2645.5,8
732.25,567.5,-977.5,91.5,-1169.5,-1085.0,1159.25,-2923.75,8
730.75,412.25,-1328.0,-898.75,-1008.25,-1182.75,992.5,-2426.5,8
865.75,231.5,-1004.0,-852.25,-947.5,-802.5,456.0,-1660.75,8
634.0,129.25,-653.25,-634.75,-969.75,-196.75,-235.5,-640.25,8
409.75,-22.25,-774.25,692.5,-944.75,138.5,-974.0,-200.25,8
86.0,-1.0,901.5,-79.75,-802.0,679.25,-1449.25,-330.25,8
-216.5,-118.0,790.5,-215.0,322.25,1191.25,-1448.5,-575.0,8
-400.5,-277.25,732.0,-331.0,1415.0,1198.0,-1505.25,138.5,8
-366.5,-380.5,811.75,-167.5,1344.5,883.0,-1577.5,452.0,8
-611.75,-448.5,838.5,207.0,1193.25,547.75,-1732.0,437.5,8
-1250.5,-611.0,675.75,-263.25,1188.5,921.5,-1763.25,742.5,8
-1208.25,-634.0,618.25,16.5,1226.0,1287.5,-1792.75,714.75,8
-1159.5,-473.5,22.5,427.75,1353.75,1509.25,-1705.5,1271.25,8
-1027.75,-440.5,-372.75,651.75,1446.5,1674.25,-1511.75,1304.0,8
-827.5,-298.75,-740.5,337.5,1368.0,1745.0,-1320.0,2136.0,8
-232.75,-174.25,-897.0,612.75,168.75,1799.5,-1126.25,2821.25,8
-209.0,-3.75,-907.25,1057.5,-835.75,1773.75,-1221.5,2544.5,8
-456.75,-8.75,-1230.0,579.0,-1022.75,1953.75,-1714.25,1931.5,8
-1058.25,-492.25,-1295.75,425.0,-989.75,2220.0,-1824.25,2420.75,8
-512.0,-545.5,-1096.0,401.0,-1125.0,2256.5,-1667.25,2630.5,8
377.0,-573.25,-1082.5,352.5,-1259.5,2218.0,-1655.0,2678.0,8
387.25,-686.0,-1065.5,420.25,-1233.25,2230.75,-1587.5,2379.25,8
475.25,-546.0,-1038.75,523.75,-1189.75,2106.5,-1452.0,1228.75,8
549.75,-501.75,-820.75,481.0,-1378.5,1690.0,-1431.0,-2287.25,8
569.0,-302.75,-495.0,30.25,-1456.5,1202.0,-1362.5,-2818.5,8
797.75,-92.75,-287.0,-53.75,-932.0,915.25,-1416.0,-2836.0,8
662.0,-16.75,-321.25,-210.25,-511.5,633.5,-1285.5,-2580.0,8
746.0,190.0,-390.0,162.0,30.25,142.75,-1074.75,-2289.0,8
742.0,277.25,-336.5,-132.25,-107.0,-89.25,-719.75,-2222.75,8
683.25,470.0,-414.5,-1022.0,-148.0,-100.25,-367.0,-1894.5,8
1138.25,654.0,-345.25,-964.25,17.5,-623.0,-196.25,-1616.5,8
1339.25,815.0,-195.75,-983.0,110.0,-907.0,-145.75,-1834.0,8
1067.75,624.0,-10.75,-586.5,427.25,-964.5,-250.5,-1137.5,8
672.0,254.0,62.0,-141.25,1055.0,-575.5,-374.75,-474.75,8
-40.75,76.25,63.0,825.5,1290.25,-130.0,-393.5,-119.0,8
-81.0,245.25,25.0,1038.75,847.0,-116.5,-493.25,-420.5,8
130.5,414.5,-73.5,864.75,610.25,-107.5,-758.5,-370.5,8
-149.0,277.75,-39.5,969.75,860.0,-354.75,-733.0,-319.0,8
-484.5,288.5,-43.75,459.5,521.75,-481.5,-522.5,-248.5,8
-289.5,600.0,173.75,-82.5,98.75,-902.75,-46.25,108.75,8
-411.0,621.0,432.0,-130.25,230.5,-1658.75,402.25,540.5,8
-537.75,508.25,492.25,-628.25,453.75,-1799.75,658.5,854.25,8
-526.5,369.5,595.25,-1397.0,759.75,-1868.25,822.75,464.5,8
-1044.5,108.75,671.0,-1520.25,909.25,-1827.0,932.75,-123.5,8
-1140.5,-27.0,673.0,-1431.25,931.25,-1603.0,1001.75,-181.5,8
-1494.75,-114.25,708.5,-1133.5,1208.75,-1463.5,824.0,-32.75,8
-1641.75,-95.25,696.25,-862.0,975.75,-1270.0,541.5,-117.25,8
-1838.5,-40.25,505.5,-702.5,1245.75,-781.0,494.0,-214.25,8
-2077.75,-103.75,173.0,-493.25,1469.5,-307.0,661.0,-205.5,8
-1857.25,-139.0,-6.75,-355.5,1076.25,-325.5,904.25,24.75,8
-1625.5,-155.5,-36.0,-395.0,558.25,-128.25,1097.75,394.5,8
-1103.25,-136.5,103.25,-24.25,586.5,-1.25,1306.25,662.25,8
-358.75,-102.75,416.75,732.75,450.5,54.75,1153.0,654.25,8
199.75,-73.5,528.5,893.5,-62.0,228.75,989.75,574.25,8
329.25,-161.25,453.25,821.75,-14.0,468.75,1320.25,776.25,8
54.75,-263.5,420.75,468.75,107.25,590.0,1474.25,1935.25,8
-360.0,-566.0,317.75,222.75,460.75,750.0,1321.75,2649.25,8
-867.75,-881.75,176.75,371.5,522.25,1158.0,1263.75,2876.5,8
-1349.0,-825.5,-29.0,507.25,213.75,1314.5,1256.5,2813.5,8
-1165.25,-750.75,-344.25,723.75,-154.5,1297.25,1246.25,2705.5,8
-394.25,-720.0,-521.25,556.75,-403.0,1264.25,1177.0,2791.0,8
543.5,-615.0,-380.5,502.75,-73.5,1096.25,958.0,2807.75,8
668.0,-526.5,-529.5,114.0,400.75,906.0,924.0,2531.25,8
785.25,-383.25,-467.0,-242.0,630.25,810.0,929.25,2200.5,8
988.0,-343.75,-109.75,348.5,429.5,823.75,714.25,1694.5,8
612.5,-298.75,-168.0,918.0,309.25,635.5,472.75,916.25,8
53.5,-185.25,-184.75,705.75,548.75,421.25,271.0,546.5,8
-207.0,-106.0,-232.75,559.25,788.25,65.75,-48.5,319.75,8
-128.5,22.25,-199.5,516.0,1030.75,-246.5,-224.5,82.5,8
-70.25,82.75,-192.0,637.75,1120.0,-427.5,-364.25,-75.75,8
-76.0,102.0,-259.75,669.75,722.0,-731.5,-414.5,-81.5,8
108.0,111.0,-179.0,743.75,398.75,-966.5,-505.5,201.75,8
398.0,183.0,-161.75,682.25,496.0,-979.0,-577.0,161.25,8
246.5,203.0,-225.75,438.75,860.75,-888.5,-619.0,11.5,8
-702.0,260.0,-315.5,246.75,1071.0,-858.25,-544.0,-36.75,8
-700.25,304.75,-251.75,105.25,549.25,-786.25,-413.25,-153.0,8
-729.5,275.25,-171.75,207.75,43.75,-644.75,-459.5,-592.5,8
-712.5,250.25,-213.25,198.75,66.0,-588.75,-393.25,-870.25,8
-687.75,230.0,-161.75,162.0,63.25,-470.0,-270.0,-1153.25,8
-696.0,244.25,-44.75,51.25,-96.5,-379.25,-58.0,-1201.5,8
-523.5,227.75,-26.75,-198.25,-365.75,-548.0,222.5,-1325.5,8
1276.25,211.25,116.25,-198.75,-512.75,-633.75,373.75,-2259.25,8
1282.75,174.25,256.5,-88.25,-649.25,-671.75,410.25,-2726.0,8
1258.0,152.5,296.25,64.0,-764.75,-551.25,506.75,-2640.5,8
1238.75,93.25,288.25,32.75,-385.25,-449.25,524.0,-2541.25,8
1211.25,61.75,99.5,-340.5,-252.0,-360.75,273.75,-2379.5,8
1181.75,108.0,-98.25,-862.5,-628.0,-103.5,129.0,-1554.0,8
1044.25,105.25,-277.25,-1086.0,-1083.0,616.25,569.75,-562.0,8
-81.5,7.25,-167.5,-1022.25,-1452.25,1851.5,955.75,-1023.75,8
-879.5,-78.5,90.0,-941.75,-1718.75,1955.25,1151.25,-1863.75,8
-889.5,-101.0,111.75,-951.5,-1768.25,1705.75,1307.25,-2111.5,8
-903.0,-94.75,98.5,-1031.75,-1523.25,1543.5,1365.75,-2179.5,8
-994.25,-83.25,42.5,-1114.5,-1221.0,1556.0,1567.25,-2105.5,8
-1055.0,-90.25,-31.5,-699.25,-1206.75,1610.25,1510.0,-971.5,8
-923.75,-30.5,-125.0,-370.75,-1538.25,1761.0,1406.5,-154.0,8
-32.0,53.5,-107.25,-203.25,-1328.0,2124.5,1231.0,-50.0,8
1193.5,261.0,186.0,-303.0,-1159.0,2076.75,1439.5,-661.0,8
1620.0,784.0,511.0,-500.5,-823.5,1582.75,1497.0,-762.75,8
1697.75,868.5,530.5,-400.5,-245.75,1334.75,1244.5,-942.5,8
1604.25,742.5,298.25,-328.0,-76.75,937.5,1101.0,-532.5,8
1579.5,775.5,385.5,-261.25,36.25,412.75,882.0,-162.75,8
1451.5,751.5,290.5,-56.25,-204.75,-478.75,722.25,152.0,8
1232.0,585.25,6.5,-12.0,-776.0,-1158.0,687.25,388.75,8
-882.75,386.75,-158.25,130.0,-1013.25,-1439.75,420.5,610.5,8
-987.25,180.75,-295.0,254.75,-870.25,-1750.25,210.25,969.5,8
-985.0,267.5,-181.75,348.0,-861.25,-2084.25,-34.5,1140.5,8
-1128.0,169.5,-228.5,470.5,-666.5,-2220.5,-337.25,1135.75,8
-1175.5,94.25,-222.75,544.75,-631.5,-2087.5,-542.5,1066.75,8
-286.5,56.25,-219.0,633.0,-775.5,-1814.25,-643.0,1205.5,8
88.25,29.25,-210.5,624.0,-891.75,-1684.5,-826.5,1243.5,8
-340.75,-42.25,-147.5,655.0,-850.0,-1428.5,-1019.25,1063.5,8
-1430.25,-122.75,-150.25,576.5,-724.5,-1167.0,-1140.25,1090.5,8
-1389.0,-192.75,-115.0,471.5,-585.75,-646.75,-1212.5,1140.5,8
-1374.75,-277.0,-69.25,452.75,-481.25,-659.75,-1228.75,828.5,8
-1353.0,-291.5,44.5,531.75,-396.5,-990.0,-1116.25,385.75,8
-1375.75,-316.25,75.25,648.75,-317.5,-1036.0,-1044.75,59.0,8
-1360.5,-302.25,-119.5,563.75,-349.5,-1256.0,-1126.5,-598.0,8
-1358.25,-293.0,-472.75,447.75,-262.0,-1372.5,-1206.75,-979.0,8
-1284.5,-297.0,-490.25,430.25,-238.75,-1470.5,-1234.75,-1046.5,8
-1074.5,-331.5,-381.75,379.0,19.0,-1369.75,-1242.75,-1089.5,8
-953.75,-341.0,-427.5,330.0,326.75,-604.75,-1321.5,-905.5,8
-241.0,-381.25,-353.75,304.25,619.75,252.0,-1336.5,-777.25,8
991.25,-439.5,-219.5,229.75,690.5,450.5,-1367.75,-613.0,8
1102.75,-472.25,6.0,152.25,641.75,617.5,-1334.5,-452.25,8
1141.5,-461.75,181.5,143.0,550.25,625.75,-1283.25,-566.0,8
1184.25,-408.75,205.5,185.25,333.75,669.75,-1323.25,-735.5,8
1249.5,-378.0,46.0,125.0,119.25,733.5,-1250.75,-894.25,8
1397.25,-260.5,-125.75,29.5,-342.5,742.0,-1246.25,-961.5,8
1562.75,-199.25,-228.75,81.5,-652.5,776.0,-1163.75,-824.75,8
1484.75,-291.0,-297.5,269.5,-671.0,1005.75,-1197.25,-713.5,8
676.25,-692.5,-85.25,393.5,-358.25,1491.5,-1488.5,-438.75,8
130.75,-796.0,296.0,399.0,-439.0,1519.5,-1423.25,-504.5,8
-12.75,-612.25,436.75,384.0,-699.0,1325.5,-1129.25,-792.75,8
-1661.0,-561.0,482.25,315.0,-613.5,1312.5,-841.25,-307.75,8
-1696.0,-457.75,549.75,185.0,-517.25,1171.5,-290.0,-46.5,8
-1533.75,-306.75,406.5,-5.5,-59.0,998.5,-29.5,373.75,8
-1608.0,-325.0,272.25,-175.25,436.5,835.0,-206.0,756.25,8
-1446.0,-210.0,193.75,-116.0,709.0,725.5,-487.25,1133.25,8
-1493.75,-232.75,172.0,-156.25,853.75,807.25,-617.0,1587.75,8
-952.75,-188.25,207.75,-204.0,798.25,1052.75,-782.0,1785.75,8
588.5,-176.5,150.25,-104.5,650.75,1512.75,-827.5,1693.25,8
653.25,-112.75,105.0,46.75,625.75,1674.25,-762.75,1163.25,8
715.5,81.25,110.5,167.25,740.75,1315.0,-723.75,698.0,8
-78.75,277.75,102.5,280.0,856.75,643.5,-495.25,560.75,8
-896.25,372.0,28.0,277.25,929.25,332.75,-218.0,396.75,8
-958.0,469.5,-88.0,183.75,850.75,368.25,29.5,253.75,8
-635.5,514.5,-143.25,158.0,744.25,464.25,47.25,252.75,8
-290.5,479.25,-104.75,-87.5,462.0,431.0,141.0,116.75,8
268.25,350.5,-85.25,-260.75,17.75,-41.75,357.25,12.0,8
798.75,81.0,-55.0,-335.25,-385.0,-564.5,329.75,133.0,8
814.75,-159.5,68.25,-273.0,-847.0,-596.25,379.0,308.25,8
791.25,-340.75,189.0,-381.75,-995.5,-648.75,355.0,534.25,8
605.25,-352.5,218.0,-540.75,-1018.75,-697.5,377.75,560.5,8
233.5,-266.75,266.75,-432.0,-824.75,-790.75,479.25,460.25,8
-433.75,103.25,342.5,-411.25,-241.75,-820.5,634.25,268.25,8
-823.75,351.0,365.75,-353.25,561.75,-836.25,684.75,-84.25,8
-821.5,394.0,369.5,-354.75,1356.75,-856.25,582.5,-335.5,8
-786.25,408.0,244.5,-359.5,1947.5,-874.75,582.5,-426.5,8
-816.0,294.25,72.0,-253.25,2039.75,-900.5,537.25,-355.0,8
-708.0,310.25,3.75,-246.25,1906.5,-955.75,544.25,-110.0,8
-512.5,331.75,-43.75,-341.5,1871.75,-977.0,506.0,277.0,8
-436.75,528.75,-115.75,-371.75,1969.25,-968.75,630.0,563.5,8
-488.0,735.75,-117.75,-365.5,1807.25,-957.75,748.5,810.5,8
-534.25,685.25,-228.5,-363.5,1562.25,-936.75,728.5,846.75,8
-420.0,559.0,-420.5,-360.75,1309.25,-930.5,653.25,794.5,8
-370.5,243.75,-527.0,-346.25,1135.75,-902.0,484.25,783.75,8
-410.5,-222.25,-612.5,-341.0,1109.75,-840.0,456.5,851.25,8
-396.25,-637.0,-539.5,-362.5,1210.25,-798.5,302.25,888.25,8
-32.75,-766.0,-394.5,-341.75,1292.5,-870.5,130.5,669.25,8
559.0,-530.75,-451.25,-360.0,1522.75,-986.25,182.5,485.25,8
1069.5,-109.75,-536.75,-438.25,1766.0,-1060.5,572.5,402.75,8
1234.25,374.25,-370.5,-408.25,1960.25,-1041.25,1091.5,266.5,8
1155.5,690.25,-90.0,-340.75,2079.75,-877.25,1047.5,78.5,8
1021.0,672.75,79.25,-488.75,1914.5,-712.0,762.75,-225.25,8
936.5,603.25,111.25,-527.25,1780.0,-715.0,614.75,-566.75,8
283.25,491.25,220.0,-300.25,1511.0,-853.75,452.5,-720.75,8
-767.75,273.0,388.5,-131.5,855.5,-942.5,346.0,-509.0,8
-1169.0,67.0,466.0,-3.75,51.0,-779.5,303.75,-304.0,8
-1107.25,-155.25,501.0,45.5,-306.5,-834.75,331.5,-198.25,8
-1025.0,-274.5,453.25,32.5,-428.25,-923.75,352.0,1.0,8
-724.0,-359.0,437.25,83.5,-396.5,-880.25,266.25,32.0,8
485.0,-516.25,390.0,37.5,-457.5,-747.5,366.5,-44.5,8
1185.5,-486.75,323.5,-40.5,-694.25,-571.25,714.25,-65.5,8
1214.75,-314.5,259.25,-113.75,-608.5,-414.0,915.5,-131.25,8
1190.0,-275.5,129.25,-176.5,-165.5,-57.75,780.0,-139.75,8
1221.5,-219.5,32.25,-203.25,730.75,300.0,664.25,37.75,8
1274.25,-31.0,-327.5,-209.0,946.75,735.25,351.5,364.25,8
1262.75,155.75,-787.25,-204.25,570.5,1184.5,-156.0,764.25,8
791.5,327.5,-776.25,-126.0,374.25,1291.25,-548.25,739.75,8
426.25,348.25,-637.75,-73.0,356.5,1206.0,-954.25,468.75,8
-107.5,298.25,-502.25,-205.0,146.0,1094.0,-1136.25,387.75,8
-522.25,293.75,-279.0,-206.0,-37.75,586.25,-1009.5,172.0,8
-532.75,292.75,-198.0,-122.25,-444.25,691.25,-738.75,-274.0,8
-540.75,484.75,-200.25,-79.0,-983.5,1017.25,-518.0,-642.0,8
-554.5,513.75,-189.75,-76.75,-807.25,1102.0,-360.75,-744.0,8
-527.25,520.75,-85.0,-197.5,-1107.75,998.75,-83.25,-567.25,8
-158.0,789.0,-71.75,-270.0,-1191.75,705.5,219.0,-423.5,8
190.25,959.25,-116.0,-298.0,-922.0,606.5,354.0,-414.75,8
520.5,1190.75,-224.25,-246.25,-970.0,445.25,462.75,-424.5,8
913.75,1333.0,-84.5,-288.75,-868.75,365.25,472.75,-455.25,8
1195.75,1129.75,289.0,-369.5,-392.5,850.0,331.75,-638.25,8
1049.75,834.0,288.25,-383.25,62.25,908.5,328.5,-890.0,8
783.0,375.75,260.0,-192.25,262.0,1005.25,398.75,-988.75,8
454.75,16.0,317.0,169.75,27.25,1076.75,576.0,-911.25,8
23.5,-247.0,300.25,243.75,-102.75,690.75,849.5,-824.25,8
-197.25,-395.25,280.5,432.5,-72.5,-233.5,975.75,-871.25,8
-305.5,-463.75,212.0,636.5,243.5,33.25,808.5,-1054.25,8
-451.5,-631.25,190.5,999.25,1059.75,279.0,313.5,-1015.0,8
-1362.0,-1215.75,411.5,1173.25,1039.75,-259.5,-76.5,-525.0,8
-1730.75,-1398.25,478.75,1020.0,339.5,-318.75,54.0,-117.75,8
-1575.5,-1300.5,162.0,783.75,22.25,-638.5,316.75,-47.5,8
-984.5,-1292.25,147.5,301.0,-46.0,-756.0,366.75,101.5,8
-292.5,-975.5,62.75,-306.0,-647.5,-1048.75,446.75,263.0,8
388.0,-652.5,-23.25,-439.75,-1054.0,-687.75,544.75,327.25,8
496.75,-398.25,46.75,-599.25,-1628.75,151.0,950.0,406.5,8
685.75,17.75,-44.25,-723.0,-1601.5,445.75,1300.5,416.25,8
374.75,382.0,59.5,-418.75,-968.75,592.0,1221.5,498.25,8
-300.25,171.5,215.25,529.25,441.5,832.0,971.0,608.25,8
-990.25,-529.0,430.5,1010.5,1084.75,1091.0,950.0,600.0,8
-867.5,-438.75,259.5,952.25,908.5,623.25,1056.5,523.75,8
-796.25,-209.0,-62.75,954.75,965.0,348.5,890.5,596.25,8
-1027.5,-295.5,-219.5,892.5,18.5,-355.75,711.75,645.75,8
-802.0,143.5,-403.0,615.75,-372.25,-637.0,718.5,713.0,8
-730.25,-92.5,-431.75,689.5,-483.0,-308.0,701.0,886.5,8
-490.0,25.0,-423.75,278.75,-680.75,-102.5,448.75,908.5,8
-551.0,-270.75,-327.0,339.25,-416.0,344.0,55.0,1003.75,8
-462.5,-491.75,-394.25,36.75,-604.0,424.0,-80.25,1017.25,8
-579.0,-806.25,-568.75,78.75,-371.5,236.0,-97.25,1013.0,8
-849.5,-1123.0,-412.25,317.25,-319.25,-418.5,-231.75,995.25,8
-669.25,-1006.25,-61.5,198.25,-447.5,-606.25,-383.25,1075.75,8
-524.75,-750.25,168.0,183.0,-769.0,-36.75,-345.5,1079.75,8
-559.25,-395.25,320.25,170.25,-847.75,184.0,-336.0,942.0,8
-703.5,-158.25,422.5,83.25,-371.75,127.5,-355.5,780.5,8
-378.25,218.75,503.25,-19.75,-265.0,251.25,-282.25,632.25,8
-51.0,305.25,514.75,-69.75,-1051.0,227.75,-126.5,520.0,8
322.75,423.75,429.75,-187.5,-2141.75,237.75,105.5,234.75,8
668.0,538.25,331.0,-310.75,-1886.25,795.25,364.75,-74.0,8
771.25,560.25,175.0,-389.0,-1757.5,1344.5,790.75,-413.5,8
689.0,690.75,52.0,-519.25,-1409.5,1543.5,1173.5,-397.25,8
543.0,728.0,34.0,-558.0,-948.25,1611.0,1135.25,-212.5,8
532.0,562.0,54.5,-476.0,-859.5,1340.0,875.75,-151.5,8
515.5,566.75,-22.5,-475.5,-816.5,1060.25,644.5,-20.5,8
554.25,652.25,-149.5,-514.0,-190.5,1079.0,158.0,-47.5,8
629.25,565.75,-355.25,-564.75,759.5,1137.75,-249.25,-181.5,8
507.75,352.75,-500.25,-381.75,1008.75,1302.25,-390.5,-288.75,8
398.0,226.75,-619.5,-393.0,789.25,1268.25,-503.0,-231.25,8
397.5,113.0,-597.0,-242.0,596.5,874.5,-671.5,-161.0,8
199.75,-188.0,-408.5,39.25,553.0,366.25,-776.25,-265.0,8
358.25,-186.25,-383.0,-260.5,221.75,241.5,-820.0,-291.5,8
438.0,-244.5,-397.5,-113.5,312.25,503.25,-697.0,-313.0,8
136.25,-404.0,-316.75,109.75,207.75,552.75,-255.0,258.5,8
137.25,-370.5,-325.0,116.0,1205.5,440.5,93.5,1054.25,8
0.25,-446.0,-453.5,283.25,-161.0,107.5,132.5,824.75,8
-36.5,-225.25,-306.25,-135.25,-2168.25,-648.5,-72.25,181.5,8
103.5,34.25,-38.0,-384.25,-2236.75,-1447.0,-293.75,-159.25,8
92.25,-32.5,193.75,-213.0,-1463.0,-1185.0,-637.5,63.75,8
-64.75,-154.25,376.75,-146.5,-1122.5,53.25,-1094.5,111.75,8
-32.25,-70.75,311.5,-179.75,-1519.0,986.75,-1539.25,-93.75,8
-103.5,-108.25,230.0,95.25,-1399.5,934.25,-1860.75,253.75,8
-238.5,-197.0,189.0,134.0,-1564.25,881.75,-1817.25,451.75,8
-94.0,-107.0,-105.75,107.0,-1681.75,979.75,-1834.25,129.75,8
-157.25,-87.25,-230.5,120.0,-1976.0,790.25,-1706.0,-500.25,8
93.25,166.25,22.5,-78.0,-2053.0,288.25,-1459.25,-1478.0,8
-126.0,106.5,139.5,401.75,433.5,22.75,-1391.75,-1754.25,8
-392.25,23.5,291.0,439.0,327.0,149.0,-1439.0,-1509.0,8
-191.25,141.0,262.0,272.25,-120.5,465.0,-1610.75,-1124.25,8
-118.25,110.25,208.25,207.75,-361.25,665.75,-1550.5,-225.25,8
-13.75,117.0,273.25,180.5,-267.75,674.75,-1268.75,-197.75,8
-211.0,16.5,306.0,283.5,-179.5,471.25,-972.0,-174.5,8
-342.25,-16.5,454.75,103.0,-490.75,-57.75,-666.75,-161.0,8
-406.75,-6.25,484.0,159.0,-329.25,-517.25,-377.0,-172.5,8
-327.0,-45.5,493.5,69.5,-362.75,-765.0,-227.0,-218.5,8
-208.0,-73.5,332.5,-115.0,-463.0,-883.5,-313.5,-457.0,8
-127.75,44.5,54.75,-241.0,-433.75,-528.25,-462.0,-381.25,8
-28.5,241.0,-135.0,-159.5,-65.75,-266.5,-685.25,-186.5,8
-43.75,421.0,-207.0,-136.75,1187.0,-485.0,-603.0,-183.25,8
87.25,540.25,-353.5,-268.25,1615.5,-299.75,-334.75,62.0,8
82.5,522.0,-440.75,-238.5,1733.5,83.0,-285.75,332.0,8
-17.0,394.0,-397.5,-150.0,1827.75,224.5,32.0,593.5,8
-85.75,264.5,-207.75,38.5,1563.25,173.0,478.5,493.75,8
-184.5,213.5,9.25,38.5,1018.25,666.25,713.25,737.75,8
-191.25,148.5,51.5,-160.25,639.25,876.5,700.0,1040.5,8
49.5,-7.5,47.5,-143.75,673.0,874.0,278.5,1135.75,8
235.25,-328.5,147.0,26.75,310.0,768.75,543.0,1025.25,8
541.5,-167.75,183.75,-364.0,-641.5,121.0,898.75,354.5,8
985.5,422.75,-140.0,-645.5,-763.0,58.5,863.5,-282.5,8
1005.25,759.0,-480.25,-592.0,-648.25,127.5,927.5,-1075.5,8
898.5,954.5,-1266.5,-626.25,-803.5,567.0,1208.5,-1201.0,8
526.5,973.5,-1351.75,-769.75,-995.75,776.5,1595.75,-1086.25,8
-123.25,798.25,-1233.5,-992.0,-1125.25,607.0,1886.5,-862.5,8
-333.0,556.0,-483.0,-903.75,-383.0,516.5,2178.75,-628.5,8
250.0,479.0,158.5,-570.5,588.25,918.5,2400.75,-563.5,8
488.25,172.25,802.25,-401.25,1449.25,1395.25,2785.5,-334.0,8
299.5,-131.0,1062.0,-267.25,1860.5,1398.5,2646.5,-171.5,8
173.25,-435.5,1180.0,-101.25,2075.5,1261.0,2302.0,-189.25,8
-297.0,-622.0,1069.0,41.25,2134.25,732.75,467.25,-162.75,8
-546.25,-539.25,947.25,155.0,1856.75,514.0,-126.25,-405.75,8
-552.0,-386.75,430.25,107.5,1458.75,-213.25,-549.75,-580.5,8
-642.0,-210.0,198.75,114.5,1494.25,-635.0,-927.25,-716.75,8
-439.5,-112.0,238.5,73.25,1860.0,-297.75,-1595.75,-791.5,8
-362.25,35.5,233.0,-70.25,2167.5,-50.25,-1874.0,-732.75,8
-423.5,87.0,326.75,-101.75,2177.75,79.5,-2108.25,-670.5,8
-396.5,-219.0,367.0,47.5,2078.5,111.75,-2052.75,-397.0,8
-610.0,-441.75,532.0,260.75,1800.5,185.75,-1793.75,-12.0,8
-460.0,-543.5,697.0,371.0,1588.75,98.0,-1813.25,345.75,8
-51.0,-535.25,835.25,405.25,1472.5,450.75,-2176.5,974.75,8
-45.5,-621.5,723.25,607.5,1074.0,651.5,-2654.25,1440.0,8
-352.0,-1232.75,564.75,1069.5,706.75,791.75,-3249.0,1374.75,8
-314.75,-1276.75,145.25,1099.25,557.25,696.25,-3392.5,553.5,8
-219.5,-1171.75,-251.0,1068.75,374.25,546.0,-516.75,391.25,8
-217.5,-985.0,-547.5,1066.5,229.25,901.25,655.75,403.0,8
-228.0,-506.25,-1089.25,997.0,71.0,897.75,590.25,322.5,8
-206.75,-332.75,-1311.5,862.0,-397.0,788.25,764.75,547.75,8
-70.75,-19.0,-1132.0,384.75,-1091.75,459.0,1311.25,716.0,8
400.5,433.25,-742.0,98.25,-953.0,568.0,1751.75,1149.5,8
-321.25,-400.0,-967.75,838.0,-36.25,880.75,1392.5,1174.25,8
-577.25,-594.5,-1362.25,798.5,418.0,215.25,1924.0,1488.25,8
-269.25,-34.25,-1176.25,480.0,693.25,-284.25,2446.0,1796.0,8
-275.0,-221.0,-692.75,681.0,794.75,-325.0,961.5,1810.25,8
158.5,-90.75,59.0,287.75,-39.25,-801.0,655.25,1499.75,8
393.25,22.5,280.75,374.25,-130.5,-651.25,664.0,1212.75,8
490.0,158.0,439.25,52.25,-614.75,-718.5,463.25,1641.0,8
794.0,575.0,505.5,-90.5,-670.5,-869.0,161.0,1812.0,8
483.0,184.75,81.25,-375.5,-820.25,-971.25,130.5,1871.0,8
336.0,366.75,-298.25,-599.75,-918.25,-932.75,-60.75,1906.25,8
221.0,349.5,-174.75,-561.5,-798.0,-407.75,-141.25,1956.5,8
344.5,410.5,179.5,-724.75,-622.25,4.25,54.0,1972.0,8
232.5,277.75,135.75,-709.5,-189.0,382.5,299.75,2025.75,8
184.75,118.5,330.25,-867.0,-127.75,500.0,611.25,2102.0,8
15.75,-124.25,429.0,-735.5,-118.5,527.5,1460.0,2073.0,8
-188.75,-315.75,659.5,-714.25,-481.5,469.75,1704.0,2091.0,8
-318.5,-122.75,1405.0,-520.0,-867.25,516.5,473.0,1501.0,8
-318.0,22.75,1660.25,-409.0,-1255.25,357.75,-248.75,183.0,8
-174.25,136.75,1773.75,-261.75,-1244.5,386.5,74.25,-1003.25,8
-188.0,103.5,1739.5,-167.0,-1075.5,447.75,33.0,-1300.0,8
-151.75,169.25,1515.25,-332.5,-1062.25,312.0,16.5,-1449.0,8
-184.5,85.25,789.5,-410.0,-1020.25,493.5,10.25,-1545.0,8
-133.5,148.25,-34.5,-380.5,-1258.5,612.5,8.25,-1542.75,8
-135.5,198.75,-358.75,-307.0,-1659.0,732.75,26.25,-1592.5,8
-24.0,197.25,-521.5,-344.0,-1448.5,481.5,69.0,-1651.5,8
170.25,293.75,-600.75,-201.0,-1242.5,505.25,41.5,-1583.75,8
335.5,352.5,-450.75,-127.5,-1507.0,488.5,162.5,-1659.5,8
596.0,648.0,-166.25,-319.25,-1856.25,-79.25,263.75,-2119.5,8
734.25,873.0,-67.5,-297.5,-2124.0,-284.75,12.25,-2336.0,8
715.0,830.75,-546.75,-193.25,-2291.0,-404.0,-242.75,-2117.75,8
677.5,749.25,-462.0,-344.25,-2094.0,-587.25,-342.0,-1849.5,8
668.0,776.5,-488.25,-408.0,-1669.5,-476.75,-649.75,-1604.0,8
409.5,504.75,-1066.0,-116.0,-689.75,26.25,-807.75,-1198.75,8
-175.5,-18.0,-1838.25,697.5,93.75,822.5,-1187.0,-866.25,8
-1068.5,-924.25,-1944.0,1083.5,3.25,1283.5,-982.5,-259.0,8
-981.75,-941.0,-1517.5,879.75,-846.5,909.25,-237.25,-324.0,8
-674.0,-568.0,-1484.25,781.75,-1374.25,875.75,1533.75,-651.25,8
-722.25,-622.75,-1262.75,661.5,-1753.75,916.25,1733.0,-710.5,8
-559.25,91.5,-905.5,475.25,-2054.25,1040.0,1727.5,-318.0,8
-573.0,330.5,-429.0,543.0,-1849.0,1019.75,1658.0,1006.75,8
-481.25,406.75,16.75,328.5,-1156.75,768.0,1646.75,1557.25,8
-481.5,239.5,452.25,454.5,-836.25,739.5,1490.5,1640.25,8
-475.0,21.0,1012.75,231.75,-283.25,636.0,-576.5,1415.75,8
-397.0,33.5,915.75,-68.0,182.5,649.0,-779.75,1288.5,8
-401.75,1.5,911.0,-438.25,241.5,288.0,-850.25,1358.75,8
-357.75,203.25,878.25,-504.25,377.25,-100.5,-1026.5,1558.0,8
-405.75,191.75,956.25,-395.0,1043.5,-499.25,-1196.75,1787.5,8
-306.75,169.25,926.75,-196.25,1225.0,-771.0,-1178.5,1858.75,8
-240.5,328.75,195.5,43.5,1010.0,-877.75,-1019.5,1977.0,8
173.5,700.75,-184.75,100.0,849.25,-950.0,-918.0,1988.5,8
169.5,672.0,-255.75,175.75,843.0,-831.0,-927.25,2054.75,8
127.5,302.0,-410.25,122.5,1077.25,-704.25,-1021.75,2090.5,8
129.75,120.5,-477.0,207.25,1189.75,-453.25,-1142.25,2097.5,8
97.0,-66.75,-424.25,9.5,969.75,-255.75,-1221.25,1251.75,8
100.25,-358.25,-557.25,-158.5,787.25,-16.5,-771.25,524.25,8
-7.0,-476.0,-409.75,-210.5,591.0,12.25,-669.75,-129.0,8
163.75,-219.25,-151.5,-229.25,546.5,24.0,-1093.5,-436.75,8
240.75,325.5,-42.0,-243.5,547.75,95.5,-818.0,-677.5,8
239.25,546.75,-74.5,-529.25,479.0,203.25,-469.25,-908.5,8
83.25,409.5,-311.0,-633.5,299.75,384.25,-535.5,-1133.25,8
-8.5,323.75,-762.0,-653.0,282.0,478.75,-215.25,-1171.75,8
-65.5,260.5,-701.0,-666.75,337.75,-126.75,-150.0,-1182.25,8
-118.0,193.25,-456.25,-491.5,77.25,-783.0,-169.0,-1200.25,8
-71.25,33.5,-350.5,-329.25,-1022.25,-1072.75,328.25,-1188.25,8
239.25,19.25,-362.0,-286.75,-1133.5,-893.25,224.25,-1177.25,8
473.5,183.75,-706.25,-221.5,551.25,-733.25,68.25,-1169.75,8
285.25,377.0,-1.5,-218.75,213.75,-749.75,-230.75,-1340.25,8
949.25,435.25,502.5,-277.25,-365.0,-767.25,403.75,-2412.5,8
1577.75,582.25,208.5,-281.75,-590.75,-993.75,1496.25,-2875.5,8
1471.0,695.75,30.25,-334.25,-570.0,-1293.5,2399.5,-2541.5,8
1008.0,625.75,101.5,-358.75,-602.5,-1243.5,2329.5,-2349.75,8
576.75,392.5,636.5,-482.25,-1000.75,-1063.0,2175.25,-2522.0,8
-90.5,-47.75,770.75,-487.25,-1925.75,-1201.75,1958.0,-2909.75,8
120.5,-76.5,777.0,-337.5,-1841.5,-1391.5,1194.5,-3151.75,8
599.5,286.25,719.75,-289.5,-1066.5,-1544.75,-105.5,-3168.75,8
-26.75,44.5,620.75,-217.25,-882.0,-1699.5,-1310.0,-3262.5,8
262.75,-229.5,457.25,-104.25,-1010.25,-1590.5,-2271.75,-3251.75,8
1037.75,-446.0,422.25,74.75,-1168.25,-1319.25,-2858.25,-3103.25,8
619.75,-1183.5,490.25,778.5,-1242.5,-1028.0,-3511.25,-3476.0,8
-370.5,-1059.75,-69.75,972.75,-922.0,-1094.25,-3464.75,-3720.25,8
-712.75,-700.0,-444.5,1114.75,-685.25,-1272.5,-3275.0,-2877.0,8
-442.0,-780.0,-184.0,1464.5,-316.25,-1345.75,-3252.0,-1829.5,8
-617.25,-712.5,-15.75,1460.75,239.5,-679.75,-2806.75,-842.25,8
-413.25,-619.25,-256.5,802.75,1018.75,505.0,-2533.5,-96.75,8
-712.5,-594.25,-357.75,375.5,1324.75,593.25,-2237.0,261.0,8
-591.5,-432.0,-86.75,100.75,1020.5,631.25,-1812.25,1117.25,8
-720.5,-566.0,-81.5,54.0,1550.0,709.25,-1493.5,1764.75,8
-840.25,-496.5,-917.25,-21.0,1536.75,790.25,-973.5,2378.25,8
-830.5,-497.0,-1118.5,-136.5,1389.5,995.75,-627.25,2488.75,8
-851.25,-203.0,-275.5,-213.0,1467.0,875.25,-459.75,2332.75,8
-473.5,-81.0,238.0,-200.5,1214.5,1106.5,-393.25,1951.5,8
126.5,12.75,101.0,-160.0,1279.25,1374.25,-348.5,1440.25,8
1123.25,83.0,-322.5,-65.5,1111.75,1352.0,-456.25,1510.75,8
1178.0,26.25,-409.5,-2.25,872.0,1182.25,-593.25,1889.5,8
1027.0,67.5,126.25,46.25,1024.0,1097.0,-448.75,2351.75,8
225.0,-23.75,224.0,-27.0,720.0,1197.0,-235.5,2749.25,8
-171.0,-20.25,289.5,-83.75,133.0,1293.75,103.75,2995.5,8
-358.0,30.25,500.25,-131.25,94.75,1302.75,557.25,3049.75,8
-479.5,117.0,450.0,-178.75,-124.25,1452.0,929.75,3137.5,8
-605.25,190.5,197.0,-110.25,-204.25,1570.75,1064.75,3131.5,8
-618.0,228.5,-180.25,-209.75,-195.5,1655.0,1321.0,3124.75,8
-443.5,167.75,-452.5,-215.0,-194.25,1747.25,1878.75,3131.5,8
-224.75,149.0,158.0,-133.5,-192.25,1688.75,2173.0,3112.5,8
44.75,150.25,686.0,-148.0,-179.75,1606.25,2058.0,2866.0,8
244.75,168.25,735.5,-142.5,-779.0,1307.5,1717.25,2142.5,8
370.75,84.75,985.75,-45.5,-1413.0,935.0,1588.75,1652.25,8
326.75,-27.25,577.25,129.5,-1711.75,518.25,1631.0,1090.5,8
315.0,139.5,-151.75,391.25,-1767.0,358.0,1786.0,903.75,8
356.0,181.25,-522.75,485.0,-1899.25,486.75,1826.75,771.5,8
203.75,157.25,-508.0,243.5,-1675.75,750.75,1768.25,674.5,8
-97.75,194.5,-603.25,-7.5,-1261.5,963.75,1865.5,600.25,8
-360.75,183.25,-740.25,-322.5,-899.0,1124.5,1932.25,920.75,8
-605.75,192.75,-1119.5,-588.0,-558.75,1424.5,1966.75,834.25,8
-780.0,52.25,-1151.5,-689.75,-491.0,1517.0,1959.5,786.0,8
-793.75,-69.5,-25.0,-651.0,-641.75,1475.25,1945.0,764.75,8
-444.75,-125.5,434.5,-563.5,-920.5,1445.25,1821.75,410.25,8
-394.75,-249.25,962.5,-559.75,-1077.0,1387.0,1730.5,-49.25,8
-701.25,-219.5,967.5,-404.25,-1260.25,766.75,1609.5,-1166.5,8
-720.5,-135.75,935.75,-300.75,-972.75,53.5,1410.25,-1761.25,8
-455.5,56.0,897.5,-198.25,-608.0,-732.75,821.75,-1835.25,8
79.75,189.5,599.75,-44.5,30.0,-856.25,-349.25,-1759.25,8
368.5,7.75,597.0,36.75,169.25,-852.25,-758.5,-1618.0,8
904.25,98.0,264.75,160.75,467.25,-910.25,253.25,-1457.0,8
1009.75,330.25,174.5,289.5,551.0,-896.25,436.5,-1256.0,8
974.5,46.75,-60.25,312.0,528.25,-829.25,-482.75,-985.5,8
921.0,-325.25,-87.5,210.0,150.75,-734.0,-344.5,-985.25,8
874.75,-287.25,-252.5,116.0,-388.75,-672.0,414.0,-1012.75,8
863.0,-58.5,-464.5,34.0,-569.25,-679.0,466.0,-1240.0,8
790.5,-24.0,-644.5,-158.25,-347.5,-564.5,510.75,-1332.75,8
367.0,41.75,-1000.0,-235.25,-489.0,-326.0,347.25,-1533.25,8
-223.5,101.5,-979.5,-161.0,-324.5,-229.75,406.0,-1724.25,8
-349.75,16.75,-899.0,-104.5,42.5,-421.75,439.25,-1714.5,8
-687.0,15.0,-149.75,-116.75,47.75,-701.5,347.75,-1890.0,8
-976.75,84.25,2.75,-189.75,-138.5,-1026.0,337.5,-2046.5,8
-895.25,248.75,322.5,4.25,-214.25,-1278.25,369.25,-2193.5,8
-854.25,354.5,358.0,214.0,266.75,-1497.5,421.25,-2269.0,8
-775.75,398.75,427.75,155.0,1095.0,-1036.25,412.25,-2079.0,8
-332.25,309.75,271.75,-24.25,1731.0,-407.75,491.5,-1680.5,8
363.5,65.25,163.0,-162.0,2034.25,-1011.25,551.0,-1465.0,8
480.75,-275.0,210.5,-270.0,2067.75,-1182.25,560.0,-1223.25,8
-6.75,-496.0,90.25,-291.25,2052.75,-772.75,599.0,-628.25,8
-107.75,-359.0,78.75,-256.0,2021.0,-836.0,-291.75,-292.0,8
235.75,-107.75,-203.0,-186.5,2009.75,-1058.0,-804.75,0.75,8
627.25,399.0,-776.25,60.5,2000.5,-633.25,12.75,327.0,8
764.75,500.75,-999.0,296.0,2000.0,429.5,-755.5,649.5,8
657.5,161.0,-684.25,232.25,1968.75,974.25,-1195.0,1047.0,8
248.0,50.75,-18.0,107.25,1995.25,1127.5,-1140.25,1370.5,8
-345.25,-336.0,76.25,113.25,1978.75,1262.25,-1158.5,1499.0,8
-440.5,-714.5,50.0,84.0,1980.0,1219.5,-1156.25,1584.5,8
-206.25,-585.5,-230.0,126.25,1635.0,996.75,-1145.25,1667.25,8
-109.75,131.0,-436.75,168.75,3.5,746.75,-1091.25,1718.5,8
-92.25,126.0,-556.0,259.0,-10.5,821.5,-1054.25,1762.75,8
-249.0,-444.5,-397.0,355.25,-227.75,631.25,-1058.75,1759.25,8
-308.0,-343.0,-648.25,143.25,-378.0,617.0,-1030.0,1743.75,8
-308.75,-412.0,-848.5,-100.25,-445.75,601.0,-1036.5,1771.25,8
-419.0,-290.75,-800.25,-193.0,-241.5,800.5,-1045.5,1801.75,8
-607.0,-61.0,-283.75,-241.25,-228.75,833.5,-969.5,1794.75,8
-580.75,45.0,1064.5,-160.5,-610.5,557.0,-958.0,1797.75,8
-365.75,-125.25,1451.25,-83.5,-996.5,407.75,-963.75,533.25,8
-168.0,-136.25,1976.5,-62.0,-1396.5,232.5,-877.0,-302.5,8
51.5,88.25,1810.75,73.25,-1591.75,260.5,-812.5,-212.25,8
11.0,-166.25,1598.0,420.5,-1766.75,200.5,-873.0,-166.0,8
-70.75,-122.75,1611.0,672.0,-1850.25,532.0,-923.0,-182.0,8
-100.25,218.0,1338.5,304.75,-1807.75,884.0,-884.25,-74.0,8
-149.0,386.75,1093.0,-386.75,-1763.25,1000.75,-556.25,-62.0,8
-89.75,271.75,828.0,-722.25,-2024.75,1172.0,-199.0,-114.75,8
261.25,90.5,557.0,-576.5,-1774.0,1350.5,-403.0,-192.5,8
326.0,-113.25,310.25,-224.0,-1014.25,1473.0,-609.25,-325.0,8
212.5,437.75,110.75,-368.0,-554.75,1191.0,-304.75,-672.0,8
545.0,728.75,-473.5,-135.25,-142.75,1253.0,-470.75,-907.0,8
568.5,417.75,-1182.5,213.25,430.75,1342.75,-805.75,-737.5,8
512.5,584.25,-1261.5,95.0,737.5,1213.5,-837.0,-501.0,8
461.5,558.0,-1394.5,106.25,1239.5,1384.75,-971.5,-486.25,8
9.0,196.25,-1368.25,269.75,1407.25,1323.0,-1063.25,-367.0,8
15.25,29.25,-1392.25,8.25,1210.0,1375.25,-1158.5,-399.25,8
-126.0,-176.0,-1175.75,-294.75,1129.75,1303.75,-1121.25,-464.5,8
118.5,191.25,-739.75,-554.25,1715.25,1252.25,-1112.0,-830.5,8
231.25,153.0,-81.75,-386.25,2408.25,1284.25,-1137.0,-996.0,8
8.5,-80.5,243.25,-237.75,2402.5,1105.5,-1098.5,-884.25,8
-62.0,-135.0,160.5,-154.5,2437.75,1183.5,-1115.5,-823.0,8
319.0,-430.5,-143.75,-68.25,2287.25,-18.0,-1080.25,-913.0,8
646.5,-339.5,-552.75,213.75,2160.0,-893.0,-1202.75,-95.5,8
-68.5,-216.0,-637.0,734.25,2180.5,-734.5,-1323.0,709.5,8
-1332.5,-651.25,-273.75,772.75,2026.0,-761.5,-924.75,958.0,8
-1260.0,-655.5,-106.75,724.0,2022.5,-786.0,-923.0,794.0,8
-903.25,-478.5,-136.75,605.0,1779.75,-696.75,-1043.25,710.25,8
-1045.0,-632.0,5.75,524.5,1138.5,-686.75,-984.75,629.75,8
-878.25,-472.25,111.0,608.25,789.25,-964.75,-1171.75,556.5,8
-1018.0,-631.25,416.0,827.75,840.5,-1095.0,-1182.0,587.75,8
-1251.5,-912.75,575.75,788.0,621.25,-1218.5,-859.75,563.5,8
-1404.0,-912.0,619.5,589.25,580.75,-1278.75,-408.5,-581.5,8
-1294.75,-692.0,539.0,530.75,972.0,-1331.25,-62.0,-1465.75,8
-857.25,-223.5,418.5,590.5,1288.0,-1288.5,230.25,-1444.5,8
-399.75,32.75,332.25,967.0,1405.0,-1300.25,412.25,-1430.75,8
128.75,198.25,102.5,1016.25,1459.75,-1265.25,461.75,-1470.0,8
363.75,383.5,-71.75,658.75,1494.25,-1291.25,480.0,462.25,8
195.25,519.5,-241.0,438.0,1559.25,-1390.75,593.75,347.25,8
-382.5,411.0,-301.0,95.75,1610.75,-1445.75,892.0,281.5,8
-702.75,-23.25,-349.75,23.25,1225.0,-1709.25,1033.5,194.0,8
-652.25,-197.5,-267.75,176.5,364.75,-1902.25,1061.25,120.25,8
-599.25,-42.75,-139.5,-74.75,-240.5,-1669.0,632.25,49.25,8
-161.25,414.0,-53.5,-557.75,-601.25,-1129.5,198.25,-11.75,8
20.75,463.5,49.75,-876.5,-561.5,-967.75,418.5,-34.25,8
417.5,-149.25,84.25,-965.75,-371.5,-1018.75,681.25,23.25,8
365.75,-496.25,102.0,-880.25,-301.75,-1215.5,1200.75,134.0,8
-128.75,-542.25,102.0,-615.0,-112.75,-1353.25,1380.0,223.25,8
-256.0,-358.5,102.5,-297.5,32.75,-939.5,1358.5,310.25,8
191.0,-218.25,75.75,105.75,136.25,-1080.5,1361.0,-1531.5,8
968.0,217.5,38.75,360.25,383.5,-822.75,1270.75,-1395.75,8
727.75,535.5,32.25,277.75,947.75,-792.5,1151.75,-1259.0,8
619.75,595.25,54.5,111.5,1139.75,731.75,1158.0,-1065.0,8
428.25,642.0,15.0,-176.75,1485.25,1017.5,1241.25,-899.0,8
247.0,601.0,-32.75,-400.25,1732.25,886.75,1217.0,-747.5,8
-26.5,590.25,-72.0,-466.5,1636.25,830.25,1181.25,-639.25,8
-557.0,194.5,-110.25,-640.75,1309.0,1026.75,1267.25,-652.75,8
-383.5,-217.25,-154.0,-752.0,1243.0,1361.25,1309.75,-791.75,8
-149.5,-285.75,-150.0,-700.75,1601.25,1536.0,1251.25,-852.0,8
493.75,108.5,-153.0,-629.25,1777.25,1401.75,1178.25,-939.25,8
944.75,211.0,-441.25,-481.25,1938.0,1276.5,1082.5,-1120.75,8
822.25,221.75,-661.5,-404.25,1910.75,1152.75,1006.5,-1169.25,8
728.75,351.0,-385.75,-295.5,1757.25,1086.75,925.75,-1246.75,8
963.0,132.75,-197.5,-109.75,1560.75,1147.75,884.75,-1329.5,8
1123.0,276.5,-217.0,-220.25,1221.25,1004.0,1124.0,-1298.5,8
1119.5,192.0,-60.75,-287.25,689.0,895.0,1330.5,-1326.75,8
1199.0,180.75,36.25,92.75,215.5,837.25,1316.25,-1186.5,8
609.75,270.5,92.0,7.0,392.5,1059.25,1319.75,-158.5,8
60.75,222.5,-1.25,-577.0,549.25,1182.0,1292.25,479.25,8
-74.0,213.0,72.0,-804.25,537.25,966.75,1255.0,1107.0,8
-188.0,66.0,349.0,-648.75,553.5,969.75,1158.25,1178.75,8
-138.75,-131.75,208.0,-159.5,421.25,1011.0,1011.75,1205.0,8
117.75,-421.0,67.5,300.25,198.0,1035.75,988.5,1236.75,8
410.0,-276.75,276.25,378.75,186.75,1270.75,804.75,1255.0,8
-236.25,115.5,388.25,563.0,107.75,1600.75,697.0,1203.25,8
-1326.0,144.75,546.75,945.0,-29.25,1482.75,761.25,1153.5,8
-1726.5,50.25,447.75,624.25,-316.5,1152.75,715.25,1078.75,8
-1738.25,55.0,230.75,-145.0,-585.25,1148.5,762.5,1039.75,8
-383.75,-9.0,494.75,-222.5,-665.0,1306.75,684.25,1044.0,8
267.0,121.5,641.75,-258.25,-214.5,1175.0,346.25,989.75,8
