0,1,2,3,4,5,6,7,label
550.0,29.5,-547.5,-151.25,743.75,435.5,-327.75,-224.75,9
794.75,-11.25,302.0,-381.5,494.0,89.75,-542.0,-207.25,9
394.25,-46.75,837.75,-389.25,364.25,-169.0,-714.25,46.75,9
253.5,-50.0,90.75,-348.5,73.0,-485.0,-635.25,-110.25,9
174.75,-49.0,-19.25,-462.5,-30.25,-884.25,-516.5,-379.0,9
-325.5,-133.0,650.0,-326.25,117.75,-1160.5,-446.25,-708.25,9
-821.5,-282.0,-98.25,-108.75,89.25,-1293.75,-320.75,-1305.5,9
-688.0,-274.75,-1195.5,157.5,-15.0,-942.5,-429.75,-1270.5,9
-752.25,-195.0,-1220.25,511.75,-50.5,-563.75,-587.5,-1157.75,9
-855.5,-166.0,-1214.0,634.5,-28.75,-502.75,-1107.0,-700.5,9
-387.75,-159.75,-1230.75,771.5,-8.25,-544.0,-1366.75,-729.5,9
441.25,-104.0,-1275.25,764.75,-66.0,-454.5,-640.0,-705.0,9
967.5,-75.5,-734.75,793.75,22.0,-42.0,-513.25,-48.25,9
891.75,-88.0,-42.75,582.0,-68.75,362.75,-642.5,142.5,9
967.25,-39.25,593.25,231.0,-161.5,507.5,-710.25,429.0,9
901.75,41.75,238.75,-10.25,29.75,652.75,-969.25,370.0,9
806.5,107.0,-648.5,-454.0,-87.0,835.0,-1057.25,669.25,9
268.75,122.25,-1258.0,-985.75,-179.25,972.0,-902.0,1082.0,9
179.0,25.0,-1315.25,-994.25,634.75,1025.75,-258.5,1038.5,9
-477.25,-93.5,-1019.75,-510.75,904.25,1028.5,351.0,964.75,9
-502.25,35.5,-651.75,-178.75,535.0,973.5,378.0,937.25,9
-269.75,180.25,-182.5,165.0,649.5,691.0,156.0,848.5,9
-411.0,240.0,246.25,120.0,699.0,348.25,-318.0,534.5,9
-112.75,295.75,504.0,-79.0,769.25,-162.5,-993.5,63.75,9
156.5,248.75,971.75,-294.75,897.75,-382.5,-1408.0,-403.25,9
342.25,188.5,1075.5,-495.5,939.25,-175.5,-1212.75,-508.75,9
347.25,25.0,988.5,-388.0,443.75,-96.0,-1127.0,-418.0,9
409.25,-50.25,994.25,-443.5,-231.75,-136.75,-713.25,-296.5,9
441.0,-107.25,699.25,-372.0,-270.25,-46.5,-602.25,-214.5,9
143.75,-108.75,257.25,-134.0,-115.75,335.5,-394.25,-160.5,9
-597.0,155.5,230.0,85.75,-374.0,645.0,-275.75,-15.25,9
-1147.0,272.25,-161.25,231.25,-474.75,754.75,-182.25,22.5,9
-1134.75,148.25,-131.0,352.5,-132.0,875.25,-95.25,61.75,9
-1093.75,75.25,-125.5,393.25,-28.0,804.0,-159.5,232.5,9
-1014.25,58.0,-12.0,254.25,-77.25,792.5,-103.75,422.0,9
-814.75,42.75,-525.75,184.75,-17.75,823.5,-209.5,407.0,9
-483.75,34.25,-576.0,168.5,-4.25,523.75,-212.75,445.0,9
-377.5,8.0,-396.75,81.0,3.75,306.75,-47.5,586.25,9
-480.75,-37.25,-175.5,55.5,63.25,179.75,172.25,673.25,9
-340.75,-131.0,106.25,166.5,136.5,122.0,162.5,731.5,9
-433.0,-140.25,193.0,194.0,151.75,139.25,180.25,600.25,9
-7.0,-108.5,454.5,240.75,136.75,4.25,361.25,521.0,9
580.25,-135.0,404.75,249.25,210.25,-323.25,470.75,330.5,9
693.5,-178.75,394.5,178.0,243.75,-643.25,371.25,535.0,9
888.5,-199.0,139.25,184.0,726.5,-889.75,146.5,840.75,9
925.0,-202.25,-96.0,154.75,1220.5,-839.25,-81.0,826.75,9
984.75,-109.5,-188.25,92.0,1601.75,-808.75,-35.0,727.75,9
977.5,82.25,-61.0,12.25,2123.5,-785.5,-49.5,-163.0,9
1040.75,135.5,51.0,-124.5,2166.0,-805.5,-441.0,-774.0,9
1068.25,184.0,-120.5,-340.0,2198.0,-874.0,-549.25,-965.25,9
1107.0,212.5,-505.5,-470.25,2070.25,-907.0,-453.0,-1198.25,9
1008.75,194.0,-442.5,-371.75,2062.25,-830.75,-44.75,-1223.0,9
817.0,298.5,286.5,-386.75,1736.5,-512.75,231.75,-824.75,9
879.0,277.0,315.5,-523.5,910.0,-32.5,471.25,-696.0,9
821.0,250.75,-336.75,-463.25,352.0,209.75,816.75,-427.5,9
790.75,267.5,-1290.0,-372.25,486.75,237.0,661.25,-916.25,9
666.5,214.75,-1080.75,-345.75,461.75,362.25,658.5,-1631.0,9
168.75,62.75,84.75,-179.75,394.25,476.5,458.5,-1679.0,9
-475.5,-11.0,1405.5,-23.25,387.0,505.0,273.25,-1695.5,9
-713.5,33.5,1507.0,-50.25,827.25,594.0,510.25,-1564.25,9
-798.75,-63.5,1474.5,-134.5,1918.5,758.5,642.25,-1170.75,9
-836.75,-79.75,650.25,-124.0,2233.5,800.75,704.25,-143.75,9
-901.25,-73.25,130.0,-128.25,2078.0,882.0,719.0,1069.5,9
-991.75,-71.0,-58.75,-155.0,1623.5,960.5,795.0,991.75,9
-958.75,9.5,135.75,-121.75,1260.5,1048.5,821.0,498.0,9
-826.5,154.0,755.0,-128.75,1054.0,1078.5,744.0,533.0,9
-381.25,133.0,1011.5,-78.0,1041.75,1086.75,678.75,-76.5,9
109.0,-139.25,911.5,28.25,-760.0,1072.25,698.5,394.0,9
5.25,-439.0,869.25,105.5,-819.25,1071.5,742.75,940.0,9
-620.25,-617.5,162.25,97.25,-791.25,1062.5,800.25,603.75,9
-543.25,-545.75,-498.0,-37.5,-880.5,950.25,745.5,-177.5,9
-20.0,-335.5,-833.0,-150.5,-930.75,897.25,582.0,-670.0,9
503.75,-13.0,-864.0,-162.25,-1082.5,965.75,465.5,-953.25,9
1026.25,240.0,-956.25,-172.5,-1268.0,972.25,329.0,-993.5,9
1026.25,440.25,-1350.25,-306.25,-1399.0,965.0,191.5,-947.0,9
1037.25,367.5,-1541.5,-381.75,-1273.25,991.5,146.75,-966.5,9
1001.5,55.5,-1589.75,-230.0,-819.5,878.5,194.0,-407.0,9
981.5,-21.25,-1343.25,-124.75,-376.0,722.0,226.75,31.25,9
1054.0,34.25,-309.25,-249.25,-552.75,536.25,377.75,459.25,9
1063.5,206.5,390.0,-39.5,-59.5,409.25,435.0,636.25,9
1014.25,26.5,998.75,446.75,665.75,313.25,448.75,1000.5,9
629.75,-90.0,1437.5,671.0,540.25,101.5,315.75,1007.0,9
-503.0,294.0,1313.75,1084.0,397.5,-143.75,-58.25,928.5,9
-885.75,465.5,894.0,1064.25,283.0,-440.5,-431.0,1332.0,9
-885.0,483.75,448.75,813.25,-1.5,-699.25,-627.25,1104.75,9
-995.0,523.75,186.25,996.0,394.0,-682.5,-517.25,853.5,9
-1225.75,428.5,157.5,1300.25,394.0,-713.25,-445.0,726.25,9
-1331.25,87.25,351.0,1052.75,640.75,-849.25,-373.5,547.0,9
-1139.75,-51.0,469.0,83.25,1032.25,-913.25,-375.75,505.0,9
-499.75,-430.0,484.25,-787.5,1052.75,-1085.75,-468.25,381.75,9
-571.0,-760.0,359.25,-803.25,610.75,-1407.75,-589.0,411.0,9
-181.0,-609.25,47.75,-1040.0,-695.5,-1450.5,-753.5,485.25,9
384.0,-547.0,-24.75,-932.5,-1936.0,-1078.25,-770.75,647.25,9
526.75,-162.5,-213.0,-956.0,-2287.75,-916.5,-751.0,978.25,9
395.5,133.25,-430.75,-1074.0,-2439.25,-861.25,-660.75,1276.75,9
141.0,22.0,-98.5,-531.25,-1881.0,-734.0,-572.25,1348.5,9
107.25,-6.5,-39.0,-448.75,-1847.25,-821.5,-479.25,1220.75,9
661.25,402.0,-637.0,-379.75,-2139.75,-865.5,-413.0,752.0,9
776.5,124.0,-669.25,223.0,-1112.5,-720.75,-398.25,103.5,9
481.0,-495.75,-616.5,572.0,-596.0,-505.5,-352.75,-93.75,9
508.25,-402.5,-752.5,539.25,-302.5,-489.75,-287.25,-458.25,9
480.75,-123.75,-353.75,450.5,871.5,-439.75,-284.25,-923.75,9
169.5,-85.25,-525.5,609.25,1158.0,-331.75,-355.25,-1137.25,9
-3.25,254.75,-867.0,552.5,932.75,-288.75,-259.75,-1381.0,9
115.75,898.5,-904.75,319.5,428.25,-319.75,-137.25,-1467.5,9
-219.75,448.25,541.75,101.5,151.25,-308.0,-141.5,-1695.25,9
-940.5,-188.5,958.5,222.25,342.0,-206.5,-12.5,-1951.5,9
-1247.25,-598.0,1116.25,368.5,508.25,-137.75,332.25,-2048.5,9
-1329.5,-1058.75,998.5,426.0,582.25,-98.5,594.75,-1696.75,9
-1312.25,-1058.5,475.25,431.0,510.5,-128.0,548.0,-905.25,9
-531.5,-953.25,306.25,110.5,26.75,-325.25,366.0,-127.75,9
685.75,-47.25,-445.0,-487.5,-115.5,-697.5,300.5,488.75,9
1299.25,648.5,-1037.0,-305.5,833.0,-736.0,334.25,706.5,9
784.5,190.0,-722.5,953.75,1911.5,-583.0,399.25,990.75,9
190.5,79.25,25.0,997.25,1807.75,-754.75,562.5,1398.5,9
316.75,63.25,216.75,735.75,1394.5,-801.0,715.5,1226.0,9
-151.5,-940.0,316.5,727.5,1175.25,-744.25,745.25,1100.0,9
-306.5,-770.25,379.5,411.5,531.0,-750.0,719.0,802.5,9
-411.0,-312.75,238.75,320.5,725.0,-688.75,632.5,130.0,9
-584.5,-338.5,-183.0,296.0,472.0,-701.5,503.75,-85.75,9
-787.75,42.5,-807.75,166.5,397.25,-703.75,442.5,-253.75,9
-1065.25,-75.25,-709.5,528.25,585.75,-734.0,430.75,-209.75,9
-962.75,308.0,-573.5,631.5,664.5,-697.25,417.25,26.0,9
-759.0,498.75,-817.75,372.0,683.5,-579.25,467.75,1601.75,9
-465.0,314.75,-786.5,173.25,563.25,-328.75,556.0,1614.25,9
-356.25,92.25,-586.0,-282.5,565.75,-49.25,581.5,801.0,9
-534.0,359.25,-302.75,-201.5,396.5,188.75,535.25,492.0,9
-967.75,199.0,303.0,-115.5,219.0,461.25,468.25,20.75,9
-864.75,-461.0,754.75,-342.25,-21.0,486.25,447.75,217.75,9
-712.0,-655.5,922.0,-419.0,13.75,488.5,410.5,276.75,9
-679.0,-826.5,993.5,-455.25,-67.25,515.75,380.0,584.25,9
-686.25,-680.0,1005.25,-211.75,110.5,545.0,307.5,831.25,9
-252.0,-0.25,818.25,-624.25,245.25,546.25,188.5,886.0,9
275.25,900.25,517.5,-571.75,88.0,607.25,143.25,724.25,9
1220.5,967.0,452.75,-232.0,430.25,846.0,132.75,454.25,9
1149.5,875.75,270.25,-549.25,693.25,1282.25,98.0,269.5,9
1143.0,1315.25,6.0,-404.5,1141.75,1797.25,91.0,78.0,9
1089.75,1177.0,-125.75,-321.25,1193.25,1999.25,118.25,228.0,9
1091.0,945.0,-145.25,-413.0,841.25,1955.25,51.0,516.25,9
1181.75,1188.5,-254.25,-551.5,606.0,1466.75,-113.75,772.75,9
1145.25,1495.0,-291.0,-198.0,564.5,-30.0,-213.25,857.75,9
1059.5,1901.25,-209.5,147.5,470.75,-214.75,-357.75,1095.75,9
1127.0,1647.25,-221.75,102.5,314.0,-424.5,-490.25,1220.25,9
730.5,1178.75,-257.5,-51.0,294.25,-667.25,-559.5,951.75,9
181.0,-568.0,-323.25,-151.75,151.5,-638.5,-641.75,516.5,9
-65.75,-1746.25,-365.0,-113.5,-22.0,-499.75,-663.75,186.0,9
-391.25,-1408.25,-434.75,43.0,20.25,99.75,-683.0,-187.0,9
-717.25,-1189.25,-408.5,466.5,10.25,698.75,-610.5,-605.25,9
-1041.0,-595.25,-334.75,-22.75,-224.0,599.75,-525.0,-815.0,9
-1078.5,-92.75,-196.0,-963.5,-121.5,576.25,-459.5,-461.0,9
-1115.5,-82.0,-90.0,-1070.75,-416.25,495.5,-416.5,295.0,9
-919.75,378.5,-127.25,-1179.5,-1135.75,152.75,-441.75,1214.75,9
-784.75,925.75,-7.5,-408.25,-710.0,-48.0,-451.0,1491.5,9
-989.0,997.5,53.25,-119.0,377.25,-10.75,-424.75,1120.25,9
-1122.25,173.0,15.25,-263.0,40.25,-127.0,-313.0,1072.25,9
-821.25,18.5,-54.75,-426.75,-647.0,-363.0,-219.75,1117.75,9
-830.5,-350.25,-95.5,-127.75,-432.25,-870.0,-135.0,1113.25,9
-723.25,-827.5,-101.5,-161.5,-846.5,-1478.5,-22.5,1104.0,9
-358.75,-1004.25,-129.75,-220.0,-1029.75,-1471.75,58.75,759.25,9
-349.25,-817.75,-130.75,-276.25,-1109.75,-1148.75,116.75,437.75,9
14.5,-1010.0,-203.75,-384.25,-1246.0,-967.0,153.75,164.5,9
568.5,-828.75,-308.5,-285.75,-1025.0,-1095.25,235.25,8.25,9
857.5,-731.25,-383.5,-223.5,-863.0,-1051.5,336.25,-130.75,9
1096.75,-551.0,-386.5,-290.5,-890.0,-841.25,430.0,-429.0,9
1268.0,178.0,-308.25,-414.25,-1010.75,-672.5,477.5,-899.75,9
1122.5,1021.25,-187.0,-234.5,-940.0,-379.0,488.0,-1315.75,9
812.0,862.75,-55.25,-159.75,-784.5,-261.0,512.5,-1586.75,9
442.75,218.5,48.75,-51.25,-347.75,-196.0,544.5,-1848.0,9
55.0,-178.5,161.5,75.5,-52.0,-62.5,662.5,-2047.5,9
-212.5,-522.0,280.5,188.5,44.75,204.25,688.0,-2212.0,9
-311.0,-880.0,342.5,288.0,-232.25,339.0,643.25,-2326.25,9
-304.0,-870.5,335.5,361.25,-389.5,438.25,692.0,-2298.75,9
-371.25,-817.5,403.75,432.5,-522.25,515.5,640.75,-2186.25,9
-547.5,-455.75,466.5,445.5,-690.25,566.75,546.0,-2046.25,9
-719.25,-307.5,479.5,506.0,-564.75,733.25,641.75,-1681.25,9
-934.75,4.5,494.5,522.75,-552.75,815.5,685.0,-1553.75,9
-1108.0,160.75,419.75,517.75,-560.25,905.75,625.25,-1520.75,9
-1185.0,270.5,406.5,492.0,-757.25,999.5,673.5,-1300.0,9
-1144.25,598.25,393.5,496.0,-793.75,1131.5,662.25,-958.25,9
-823.25,538.75,203.0,425.5,-740.5,1157.75,647.0,-558.0,9
-472.75,194.25,-21.0,323.5,-952.75,1137.25,730.25,-349.5,9
-264.5,-335.0,-137.75,354.25,-1010.5,1020.75,756.25,-328.25,9
-42.5,-963.5,-79.25,469.0,-861.0,833.0,610.75,-159.75,9
64.75,-1013.0,-10.25,383.25,-548.25,652.5,450.5,56.5,9
174.25,-432.0,-47.5,345.25,-367.25,520.75,305.5,130.0,9
309.75,156.5,-32.0,566.0,-599.0,421.25,254.5,367.0,9
401.25,927.75,44.5,555.5,-681.75,-64.5,409.25,679.0,9
444.75,1338.75,50.0,475.25,-592.5,-716.5,554.0,695.5,9
424.5,1192.5,-11.25,384.75,-680.25,-879.5,520.75,705.25,9
430.0,1006.75,-17.5,197.75,-1315.75,-864.25,391.75,677.0,9
516.5,675.75,-54.25,-110.25,-1463.25,-833.0,225.25,652.5,9
593.0,432.5,-86.25,-201.25,-1376.0,-929.5,-144.75,601.25,9
543.25,-294.5,-49.25,32.25,-1490.25,-1154.5,-412.5,501.25,9
548.5,-1205.5,-21.0,253.0,-1527.75,-1253.0,-269.0,211.0,9
564.75,-1313.25,-9.0,464.0,-151.5,-645.0,86.25,-49.75,9
555.75,-1332.0,-75.25,193.75,1098.25,-63.25,395.75,-202.75,9
499.75,-735.75,-183.25,-136.25,712.25,322.75,551.5,-361.5,9
370.0,-356.0,-217.0,-313.75,350.25,510.5,480.75,-465.5,9
385.75,-370.0,-44.5,-180.5,233.0,497.75,210.5,-550.5,9
425.0,-345.5,150.75,180.0,536.5,410.25,72.5,-621.0,9
431.25,-652.5,174.5,159.75,601.5,313.75,124.0,-643.5,9
362.25,-561.5,168.5,152.0,752.0,216.0,153.25,-633.5,9
-167.75,-294.75,155.25,196.25,1081.0,230.75,148.25,-520.5,9
-1123.5,-399.75,99.5,148.25,1273.75,173.5,80.75,-433.25,9
-1155.25,-438.75,59.75,218.0,1601.25,178.75,-122.5,-372.5,9
-1227.5,-392.75,26.5,498.0,1655.0,330.75,-279.0,-260.75,9
-1193.5,-236.0,-96.75,181.75,1567.25,475.75,-288.5,-76.0,9
-1143.25,265.0,-234.0,-420.0,1177.75,573.25,-316.0,64.0,9
-1121.75,493.25,-185.75,-282.75,594.0,640.75,-439.5,157.25,9
-652.0,544.75,-88.25,-169.5,154.75,664.0,-577.5,253.25,9
602.0,580.0,-120.5,-190.0,-67.75,448.5,-630.75,346.5,9
1137.75,498.75,-154.0,-32.25,-224.5,125.5,-658.75,475.25,9
1158.5,424.25,-166.25,44.25,-167.25,-242.25,-675.0,649.0,9
1167.5,264.5,-148.75,136.75,-48.0,-546.75,-661.5,873.5,9
1187.75,301.25,-183.0,-42.0,116.75,-653.0,-635.75,1022.5,9
1130.25,393.25,-252.75,-240.0,156.25,-563.0,-654.5,1142.5,9
1039.25,550.5,-271.75,-312.0,101.0,-454.0,-693.0,1260.0,9
916.0,761.0,-198.0,-279.75,104.5,-321.25,-736.5,1354.5,9
911.0,1037.25,-103.0,-187.75,120.5,-270.0,-763.25,1415.5,9
861.25,1181.0,-138.25,-129.0,240.5,-277.25,-774.25,1522.5,9
45.5,1110.5,-110.5,-94.75,382.5,-199.75,-881.5,1583.75,9
-488.25,913.5,-83.25,-117.75,1164.75,-105.25,-890.25,1551.0,9
-875.5,525.75,-104.5,-62.0,1708.0,68.75,-806.25,1425.25,9
-881.5,337.5,-76.0,-152.25,2029.5,216.75,-731.0,1052.25,9
-731.0,187.75,-81.25,-278.25,2245.25,395.5,-630.0,839.25,9
-484.25,143.5,-72.75,-245.75,2089.75,562.75,-594.0,755.5,9
-297.25,116.75,-51.0,-244.5,1783.5,647.25,-545.25,628.75,9
-232.0,9.0,-32.5,-208.5,1450.0,790.75,-445.0,583.25,9
-283.75,-93.75,-21.25,-172.0,1348.0,876.25,-378.0,566.0,9
-366.0,-206.75,-8.75,-161.0,1402.25,831.25,-483.25,572.25,9
-308.25,-173.0,-17.0,-73.5,1210.0,764.75,-652.75,306.75,9
-197.25,-112.5,-66.0,7.75,1184.5,773.25,-719.75,-96.75,9
-142.5,-65.0,-88.25,33.5,1368.0,771.25,-638.0,-210.25,9
-153.75,-32.0,-52.5,56.5,1384.25,694.25,-431.75,-218.0,9
-135.5,-6.75,-65.5,11.75,1113.0,648.75,-174.0,-246.0,9
-180.5,11.0,-211.75,-57.0,898.5,615.5,-78.25,-480.25,9
-274.5,-8.75,-339.5,-56.25,1007.0,472.25,-236.0,-598.5,9
-501.5,-62.75,-235.0,-66.75,1160.0,345.75,-362.25,-607.25,9
-628.75,-225.0,51.25,-41.75,1511.0,362.0,-275.75,-615.75,9
-614.75,-620.25,279.75,-17.0,1848.75,528.25,116.0,-460.5,9
-688.5,-793.75,339.75,112.25,1150.25,674.5,232.25,-420.75,9
-771.75,-755.5,400.75,488.5,150.0,620.5,-3.75,-688.25,9
-625.25,-717.75,469.0,733.5,-154.0,585.0,-67.25,-1088.0,9
-492.0,-623.75,413.0,686.5,-319.0,543.75,81.75,-1537.5,9
-484.0,-535.0,320.5,601.0,-583.5,411.25,133.0,-1332.0,9
-529.5,-504.75,290.5,574.75,-937.0,232.0,-150.25,-1045.25,9
-621.5,-516.5,148.25,512.75,-1307.75,31.75,-449.5,-1120.25,9
-689.75,-620.75,-113.25,363.0,-1399.0,-97.0,-438.5,-719.25,9
-715.5,-662.0,-220.25,184.0,-1198.25,-141.75,-209.0,-477.25,9
-666.25,-547.25,-347.0,60.5,-1234.5,-222.5,-251.75,-327.0,9
-391.25,-191.25,-216.0,-114.25,-1627.0,-316.0,-673.75,-418.0,9
-129.75,171.75,31.25,-225.0,-1905.25,-392.5,-701.0,-552.0,9
177.25,314.0,183.5,-293.5,-2244.0,-478.5,-653.75,-254.75,9
304.0,271.25,387.75,-363.5,-2612.0,-521.0,-768.75,103.5,9
233.5,108.75,313.0,-420.5,-2769.75,-526.5,-983.0,453.0,9
204.75,-133.0,238.75,-494.0,-2948.0,-514.25,-1024.75,508.0,9
133.25,-361.0,177.0,-495.75,-3012.5,-439.25,-905.5,601.75,9
100.0,-289.75,40.0,-484.0,-2866.25,-413.0,-986.0,587.5,9
89.5,-48.0,24.5,-448.25,-2703.25,-449.0,-1133.0,542.0,9
40.5,161.25,-69.5,-440.75,-2498.5,-341.5,-1140.25,465.75,9
-43.75,164.0,-236.25,-424.0,-2372.25,-271.75,-1015.25,331.5,9
-115.5,178.5,-327.5,-399.75,-2319.75,-264.0,-804.75,338.25,9
-34.5,466.75,-307.5,-347.0,-2245.5,-177.75,-616.0,324.0,9
52.25,563.75,-389.5,-336.75,-2288.5,-144.0,-603.75,322.0,9
121.75,525.25,-442.5,-333.75,-2403.75,-166.5,-574.5,251.5,9
243.5,370.25,-393.75,-328.25,-2327.75,-182.75,-540.75,272.5,9
261.0,-111.25,-384.75,-345.25,-2221.0,-184.75,-398.25,403.5,9
175.0,-299.5,-348.5,-312.75,-2080.25,-65.5,-184.25,469.0,9
163.75,-154.5,-338.5,-306.75,-2149.0,62.0,-21.25,551.5,9
235.0,-16.25,-344.5,-283.5,-2389.75,77.25,89.75,634.75,9
315.5,373.25,-346.75,-283.5,-2502.75,170.75,153.25,604.25,9
284.25,620.25,-217.5,-345.75,-2460.5,107.0,200.0,720.5,9
448.0,815.25,106.5,-526.0,-2578.75,-291.5,12.75,859.0,9
705.5,1184.5,300.5,-475.0,-2699.75,-368.25,155.0,398.25,9
613.25,1443.5,94.25,-416.25,-2720.75,-283.75,462.25,-677.25,9
442.5,1321.5,-46.75,-427.5,-2093.0,-257.0,531.25,-790.0,9
449.25,1079.0,14.0,-403.0,-1560.5,-99.75,661.0,-992.25,9
523.5,726.75,-54.25,-402.5,-1121.5,15.25,720.25,-998.25,9
684.0,330.75,72.25,-408.75,-603.25,-1.0,822.75,-1038.75,9
716.0,107.25,152.75,-295.5,-108.0,143.5,840.75,-979.25,9
594.0,-63.5,73.75,-165.5,482.25,107.25,810.0,-699.25,9
446.0,302.75,-61.0,-67.75,1226.5,107.75,830.25,-296.75,9
225.25,397.0,-37.5,27.0,1762.0,105.75,741.25,35.75,9
-32.25,77.75,12.0,133.75,2078.75,38.0,786.75,240.75,9
-202.0,0.5,-18.0,186.25,1970.75,9.25,879.25,371.5,9
-178.5,-80.5,70.0,233.0,1918.75,-89.25,892.75,367.5,9
-266.75,-225.0,33.75,232.75,1795.75,-266.0,789.75,271.0,9
-249.0,-194.25,46.0,214.0,1689.25,-549.0,752.75,-178.25,9
-211.75,-166.5,-32.5,212.75,1750.75,-804.5,769.0,-31.0,9
-175.25,-173.0,-94.25,310.0,1883.75,-824.25,850.5,70.0,9
-227.25,-209.5,-17.75,282.0,2099.5,-817.75,906.25,346.0,9
-320.25,-258.25,94.25,248.25,2243.75,-834.5,840.25,1064.25,9
-476.75,-202.0,259.25,341.5,2454.25,-782.75,848.25,1699.0,9
-645.0,-43.5,239.25,326.75,2529.25,-766.25,912.25,2109.75,9
-299.5,87.0,130.0,305.75,2581.25,-758.75,944.25,2214.75,9
-77.5,23.25,40.75,260.5,2620.75,-744.5,826.75,2203.5,9
-51.5,-175.25,-6.75,253.25,2702.75,-697.0,578.0,2171.0,9
33.5,-226.0,-25.25,291.5,2791.5,-646.75,303.5,2119.25,9
-107.75,-326.0,-26.25,291.0,2517.25,-755.25,112.75,2141.25,9
-368.5,-714.0,-87.5,285.75,2336.5,-1047.25,-126.75,2149.25,9
-625.25,-998.5,-178.75,267.0,2960.0,-1195.0,-429.25,2186.0,9
-661.0,-768.0,-134.0,246.0,2665.0,-1212.75,-753.25,2076.0,9
-871.25,-670.25,44.0,307.0,1626.25,-1304.5,-1015.75,1717.5,9
-1204.25,-833.0,304.25,441.5,960.75,-1252.75,-966.75,1300.75,9
-1305.25,-800.25,632.5,387.0,723.0,-858.75,-894.25,694.25,9
-1311.0,-735.25,742.5,483.5,828.75,-370.0,-671.0,251.0,9
-1188.25,-568.0,582.75,602.75,687.25,156.25,-703.75,44.5,9
-1104.0,-447.75,580.25,530.25,605.75,330.25,-1010.25,-199.5,9
-1037.75,-391.25,421.0,426.75,511.0,158.25,-899.75,-880.75,9
-941.0,-368.0,195.0,291.75,268.0,68.75,-923.5,-1456.25,9
-812.0,-300.25,183.5,240.75,460.5,104.0,-1173.25,-1676.0,9
-563.75,-89.5,157.75,130.75,412.0,134.0,-1373.25,-1745.0,9
-346.5,48.75,157.5,-31.0,118.5,186.5,-1294.0,-1766.0,9
-318.75,-16.25,-119.0,-89.0,-473.25,227.75,-1077.75,-1678.5,9
-288.25,-24.5,-354.5,-119.0,-956.75,-343.75,-1204.5,-1551.5,9
-207.75,-64.75,-397.25,-96.5,-1297.75,-1604.5,-1065.5,-1538.5,9
-198.0,-255.25,-271.25,-175.0,-1387.75,-1640.5,-801.0,-1183.75,9
-252.5,-238.75,-73.5,-232.25,-185.0,-1488.75,-745.75,-956.5,9
-90.25,-30.0,14.5,-248.5,913.75,-1332.25,-853.75,-356.75,9
70.25,79.25,48.25,-294.0,841.5,-1231.75,-717.0,30.25,9
92.75,123.25,-151.75,-390.75,630.5,-1174.75,-445.25,452.5,9
246.75,135.5,-239.5,-439.25,459.75,-1141.5,-399.75,341.25,9
348.75,167.25,-199.0,-363.5,136.25,-1056.75,-159.25,163.0,9
579.5,213.75,-72.0,-448.0,-11.25,-992.25,218.5,39.5,9
950.75,231.5,56.25,-526.0,-4.75,-942.5,364.0,-136.5,9
1370.0,403.5,90.5,-343.75,6.5,-446.25,516.75,-234.0,9
1407.75,584.25,139.25,-27.0,8.0,-26.75,734.25,-284.5,9
1387.25,549.5,-22.25,-55.5,-108.0,327.5,868.75,-712.75,9
1374.75,481.0,-167.5,-155.25,5.25,649.25,880.25,-1144.0,9
1316.5,421.25,-265.75,-231.25,109.25,907.75,869.75,-1399.5,9
1186.5,158.25,-263.25,-382.0,97.75,1118.5,992.75,-1469.0,9
702.25,-175.0,-123.5,-223.75,171.5,1314.5,1105.5,-1651.5,9
535.25,-169.25,-92.75,-135.75,196.25,1484.75,1219.5,-1402.75,9
293.25,7.25,-196.25,-182.25,27.5,1619.25,1534.5,-1037.5,9
125.5,114.5,-377.5,-168.25,-20.5,1696.5,1641.0,-562.5,9
60.75,77.5,-428.5,-163.25,-6.25,1769.25,1593.0,-611.0,9
-123.5,65.0,-207.0,-145.75,-57.0,1817.0,1514.75,-71.25,9
-205.75,177.75,99.5,-138.75,-149.0,1835.0,1156.75,222.25,9
-183.0,154.25,381.0,-124.75,-266.25,1816.0,960.75,-2.5,9
2.5,165.0,637.0,-104.25,-227.25,1790.5,931.75,-281.0,9
211.0,59.0,592.0,-76.75,-76.75,1754.25,787.25,-961.75,9
266.5,-40.0,476.0,-56.0,82.5,1741.75,760.5,-1259.0,9
194.5,54.5,333.25,-21.5,55.25,1794.75,829.75,-1063.75,9
108.5,97.0,85.75,-9.25,-135.0,1819.5,873.5,-1118.5,9
167.5,152.5,-147.0,-20.0,-722.75,1808.0,964.25,-945.0,9
89.5,203.5,-267.0,5.5,-1225.5,1870.5,940.75,-224.25,9
52.75,289.5,-281.5,64.5,-1764.0,1980.75,913.0,-8.5,9
117.5,314.75,-344.75,65.0,-2019.0,1825.25,948.25,252.5,9
103.0,332.25,-224.75,-4.5,-1877.75,1635.5,904.5,223.75,9
208.25,322.25,66.75,-27.0,-1789.25,1481.75,837.0,412.0,9
299.75,208.75,354.5,39.75,-1755.5,1385.5,775.0,820.0,9
337.75,86.5,494.0,75.75,-1691.5,1282.25,754.0,981.5,9
339.5,13.25,610.0,64.0,-1464.5,1233.25,831.0,1356.5,9
211.25,56.0,649.0,70.0,-1247.5,1184.75,873.25,1422.0,9
75.5,128.5,383.0,51.0,-1232.0,1046.5,838.5,1142.5,9
-39.5,181.0,158.5,47.5,-1300.0,808.5,920.5,1124.25,9
-245.75,-59.25,-55.5,38.75,-1303.0,485.0,944.0,840.0,9
-593.75,-566.75,-339.25,28.25,-1321.0,149.25,896.25,533.25,9
-744.0,-637.0,-541.0,58.5,-1464.5,72.0,736.25,335.5,9
-544.0,-346.25,-552.75,60.25,-1461.5,107.5,439.5,182.75,9
-449.0,-203.25,-381.0,68.5,-1101.25,127.0,269.0,195.0,9
-342.5,-101.5,-322.75,80.75,-680.0,97.0,150.25,148.25,9
-304.0,-57.5,-418.5,64.25,-283.75,91.75,28.5,280.75,9
-435.5,-18.75,-506.5,5.5,-171.25,-27.75,-170.0,529.0,9
-423.5,41.5,-435.25,-354.0,-753.5,-776.0,-380.0,1113.0,9
124.0,380.25,-185.75,-636.75,-1175.75,-1365.5,-108.5,1110.5,9
327.75,816.0,-165.25,-584.5,-1146.0,-1307.5,344.75,411.0,9
247.0,728.0,-154.0,-516.5,-897.25,-1104.75,472.5,211.5,9
362.75,540.5,64.0,-414.25,-612.5,-983.5,358.0,228.75,9
140.5,464.5,-36.5,-132.25,-422.0,-715.0,150.25,579.5,9
-177.5,158.0,-181.75,-166.75,-229.0,-697.25,13.25,852.25,9
-303.25,193.75,-411.75,-104.25,145.25,-502.0,-129.5,686.25,9
-315.0,182.0,-630.0,-113.75,188.25,-398.0,-267.75,682.25,9
-175.25,239.25,-732.75,-32.75,165.0,-187.75,-486.25,395.75,9
-150.75,237.5,-891.5,97.25,202.75,-120.5,-708.25,-184.75,9
-177.5,167.0,-1038.0,176.5,300.0,-332.5,-900.0,-837.25,9
-409.0,90.75,-1013.0,231.5,640.25,-396.75,-1165.0,-895.25,9
-460.75,-253.25,-807.5,197.0,830.75,-368.0,-1356.75,-901.25,9
-421.75,-418.75,-639.5,203.75,1005.25,-327.25,-1461.5,-977.5,9
-93.5,-292.25,-238.75,119.0,1089.0,-410.0,-1537.25,-1016.75,9
223.75,-133.0,-1.5,293.0,826.5,-472.5,-1613.5,-795.0,9
117.75,-370.5,73.75,663.0,566.25,-476.25,-1911.0,-813.75,9
-697.0,-800.75,214.75,759.25,1019.75,-351.75,-2309.75,-467.5,9
-1238.5,-938.75,444.75,726.0,1056.5,-489.75,-2218.75,-399.25,9
-1049.0,-777.5,467.5,708.0,291.0,-800.5,-2022.0,-368.5,9
-818.5,-557.25,286.75,643.25,-205.75,-918.0,-2007.75,-135.25,9
-830.0,-477.25,320.5,518.75,-570.5,-1098.25,-1769.0,-37.0,9
-576.0,-287.75,121.75,426.75,-722.0,-1184.25,-1626.75,87.0,9
-628.75,-226.75,56.5,335.0,-865.0,-1228.0,-1446.5,250.5,9
-573.25,-131.75,64.0,377.25,-1009.25,-1275.25,-1358.75,126.25,9
-462.0,-112.25,-25.25,209.75,-1126.25,-1282.0,-1246.5,190.0,9
-102.5,-47.5,-25.5,146.0,-1122.25,-1238.75,-1133.25,383.0,9
-140.75,-135.75,15.5,166.75,-1283.75,-1092.25,-988.0,460.75,9
87.75,-64.25,18.25,-233.5,-1369.25,-951.75,-663.0,490.25,9
397.5,-32.75,111.0,-504.75,-1274.5,-788.25,-348.25,578.75,9
674.25,238.75,89.25,-935.0,-1399.5,-801.75,242.0,680.75,9
851.75,691.5,62.5,-1000.0,-1229.25,-691.5,468.0,480.0,9
493.25,515.5,444.75,-779.25,-1095.0,-519.25,406.25,512.75,9
898.0,725.0,632.25,-854.0,-1252.25,-674.0,321.0,640.75,9
898.75,793.75,821.5,-680.75,-1032.0,-522.75,-29.75,837.5,9
552.5,525.25,828.25,-737.0,-646.75,-427.25,-991.5,1120.0,9
291.5,497.75,651.5,-738.0,-562.75,-421.0,-914.75,1195.75,9
-275.75,209.0,662.0,-379.25,-737.0,-363.0,-645.5,987.5,9
-417.0,117.75,524.25,-256.75,-1384.75,-505.5,-657.5,623.25,9
-511.0,21.75,503.5,0.25,-1659.75,-487.0,-537.5,184.75,9
-457.5,-28.25,393.75,47.25,-1572.25,-445.75,-408.5,104.75,9
-329.5,-13.5,278.75,125.5,-1175.0,-209.5,-215.5,325.5,9
-251.25,-135.75,200.75,152.25,-773.5,26.25,-51.5,682.25,9
-201.0,-130.75,87.75,145.0,-519.5,281.5,-13.5,801.75,9
-157.5,-186.0,29.0,158.5,-340.5,499.0,-57.75,744.25,9
216.5,-213.75,-135.0,129.0,-344.0,530.25,-166.25,453.25,9
622.25,-220.5,-293.75,276.75,-596.75,521.5,19.5,-59.5,9
803.0,-208.75,-470.75,641.25,-1030.75,613.25,189.75,-483.25,9
-237.75,-747.25,-252.5,833.75,-1222.0,811.0,305.75,-324.0,9
-534.0,-824.25,-29.5,735.75,-1480.0,615.0,460.25,-324.0,9
-490.25,-640.75,-139.0,650.25,-1951.0,449.0,597.25,-525.75,9
-659.0,-651.0,-54.5,651.25,-2200.75,436.5,635.0,-158.5,9
-548.75,-455.25,-80.0,618.75,-2404.0,207.5,703.25,69.5,9
-507.0,-401.5,-76.75,591.75,-2427.0,232.25,758.75,116.5,9
-582.25,-270.75,-20.25,413.0,-2155.75,195.75,735.75,93.75,9
-547.5,-94.0,-49.5,319.5,-1918.5,189.25,731.0,-66.75,9
-618.0,-68.0,-61.25,186.75,-1775.75,147.0,701.5,-9.75,9
-184.0,59.25,-163.5,-80.5,-1548.75,119.0,673.5,276.0,9
186.75,107.25,-331.0,-497.75,-1243.0,91.5,619.5,631.75,9
843.0,348.0,-477.5,-921.75,-1146.75,-91.25,731.5,1085.5,9
1081.25,584.5,-458.5,-915.0,-1014.0,-379.0,904.75,1528.0,9
1069.25,845.5,-514.0,-801.75,-707.75,-459.75,937.25,1401.0,9
884.5,773.0,-484.25,-706.25,-6.5,-117.25,680.75,1041.75,9
404.0,262.25,-295.5,-88.5,1215.25,324.0,259.5,314.25,9
-637.5,-563.5,37.25,755.25,1406.25,810.5,-41.75,-178.75,9
-737.75,-725.5,334.0,687.25,1304.5,610.75,-47.25,49.75,9
-572.75,-450.75,426.75,492.0,1539.0,489.0,-35.75,-74.0,9
-712.25,-490.0,567.25,545.25,1435.25,608.25,-81.75,-154.75,9
-526.5,-396.25,438.0,387.5,1410.5,310.75,-35.25,-167.75,9
-351.0,-240.5,161.0,359.0,1371.75,157.25,-20.75,-316.75,9
-17.5,-118.0,56.0,187.5,1325.75,-77.5,128.25,-357.25,9
248.0,64.25,106.0,133.25,1493.75,-158.5,272.25,-529.0,9
360.5,84.0,84.25,178.0,1335.5,-198.0,276.0,-624.75,9
561.5,125.75,69.5,110.0,1386.5,-244.0,178.25,-821.0,9
477.5,44.5,233.0,167.25,1348.25,-306.5,155.5,-896.75,9
497.25,82.25,370.25,123.75,1275.0,-351.0,159.75,-786.5,9
281.5,-1.5,448.75,115.0,1174.25,-349.25,160.0,-654.25,9
101.5,-17.25,486.0,69.25,1079.0,-388.0,151.0,-776.75,9
-159.75,39.0,414.0,14.5,965.0,-310.0,91.0,-915.0,9
-185.75,101.25,209.25,-41.25,877.0,-258.25,92.75,-688.75,9
-322.75,96.25,74.25,56.25,839.0,-195.0,71.25,-808.5,9
-470.75,-46.25,1.0,2.0,560.25,-188.0,26.5,-1453.5,9
-470.5,-47.5,-166.0,-96.5,407.25,-161.25,-32.0,-1810.0,9
-998.25,-34.5,-249.75,-7.5,322.75,-99.5,-60.0,-1763.75,9
-852.5,-10.25,-281.5,-124.0,324.0,-60.75,-105.5,-1780.75,9
-89.5,-60.0,-450.5,-247.25,446.75,-13.75,-168.0,-1882.0,9
833.0,-35.5,-575.25,-299.5,724.25,9.5,-236.0,-1889.0,9
1265.5,86.75,-419.25,-300.0,1063.0,5.5,-313.5,-1877.5,9
1247.5,133.0,-89.0,-334.75,1054.0,36.0,-280.5,-1429.75,9
1127.25,137.5,106.75,-477.0,991.25,62.5,-258.0,-1116.25,9
866.0,193.0,224.5,-487.0,1097.25,30.75,-350.5,-1032.25,9
474.75,214.0,236.0,-350.0,1173.25,-72.25,-519.75,-843.75,9
204.75,132.5,171.5,-275.0,1138.25,-161.5,-669.5,-497.75,9
-104.5,126.0,75.25,-308.0,998.25,-92.0,-726.5,-617.0,9
-2.0,121.5,-18.25,-242.75,719.0,40.75,-555.25,-321.0,9
175.25,116.75,-62.25,-295.75,471.5,297.25,-347.25,-431.0,9
248.5,136.5,-219.75,-386.0,457.0,542.5,-276.25,-533.25,9
489.75,145.0,-255.5,-147.0,339.25,559.25,-121.25,-690.75,9
331.25,100.0,-248.0,0.25,-76.0,578.0,-0.25,-817.5,9
282.0,104.25,-449.5,-78.75,-409.25,524.25,18.0,-681.5,9
181.75,171.75,-461.25,-94.25,-389.0,371.5,-50.0,-667.75,9
122.0,186.75,-242.5,-132.5,-497.5,279.5,-112.75,-462.75,9
143.0,205.5,-58.25,-238.5,-695.25,110.5,-105.75,-291.25,9
72.0,178.75,154.0,-219.25,-700.0,-27.75,-67.75,22.75,9
84.5,148.5,303.5,-32.5,-706.25,-24.0,-125.25,223.0,9
18.0,151.25,381.5,42.5,-758.0,103.0,-209.75,397.0,9
-180.5,134.25,351.75,-20.5,-873.75,279.75,-61.5,576.5,9
-593.25,137.25,279.25,-15.75,-1050.5,307.0,142.25,880.75,9
-913.5,150.0,203.5,22.0,-963.75,328.0,182.0,1179.0,9
-827.25,115.0,75.5,-4.25,-639.75,304.5,201.75,1239.75,9
-551.0,64.5,19.25,-86.75,-393.75,200.75,135.25,1178.5,9
-374.0,19.5,0.5,-196.75,-242.0,195.75,85.0,951.75,9
-251.0,-59.25,37.0,-44.0,-216.25,121.75,72.25,807.25,9
11.75,-94.75,59.0,185.0,-195.0,132.75,40.25,707.25,9
274.5,-58.75,44.5,198.75,-32.75,203.75,-54.5,632.0,9
313.75,-27.5,4.25,239.75,71.5,93.0,-193.0,515.25,9
378.75,-48.25,24.5,145.0,139.75,60.5,-247.0,347.75,9
306.0,-48.5,72.75,-102.25,250.25,89.25,-329.25,282.75,9
169.5,-29.75,41.25,-130.25,467.5,25.0,-397.25,269.75,9
44.5,15.0,-17.0,-194.0,657.25,-17.0,-470.25,187.75,9
-67.75,35.0,-103.0,-313.25,954.5,-91.5,-617.25,94.5,9
-79.25,41.5,-104.5,-253.5,1139.75,-135.75,-608.25,80.75,9
-105.0,29.25,-90.0,-173.25,1329.0,-141.0,-424.5,165.5,9
-168.75,-40.5,-99.25,-76.0,1431.0,-188.25,-200.75,338.75,9
-246.25,-34.75,-111.75,-79.75,1316.25,-244.5,68.5,467.25,9
-318.5,-33.25,-131.75,-53.75,1373.5,-238.0,290.75,571.5,9
-404.25,-54.75,-146.25,-43.75,1391.5,-146.5,414.25,689.5,9
-302.5,-52.25,-172.5,-120.5,1487.5,-103.5,550.25,709.75,9
-217.5,-51.75,-176.0,-154.25,1420.0,-118.5,577.25,758.5,9
-27.0,-48.75,-179.75,-97.0,1326.5,-181.75,551.75,834.0,9
219.25,-51.5,-152.5,18.75,1262.0,-299.25,686.0,904.25,9
305.25,-28.5,-131.5,18.75,1168.5,-381.0,742.5,989.25,9
299.75,-22.25,-133.5,0.75,1094.5,-423.25,699.5,999.75,9
186.75,-22.0,-131.0,-38.0,941.75,-376.0,895.5,990.25,9
176.0,-23.25,-115.75,-75.5,900.5,-101.25,1269.0,983.75,9
115.75,-38.0,-63.25,-83.75,791.0,227.25,1367.25,974.25,9
-267.25,-1.5,-37.25,-125.0,538.0,166.75,1241.25,961.25,9
-651.0,46.0,-59.5,-155.75,327.25,-8.0,1142.25,938.5,9
-156.5,74.5,-85.25,-173.0,252.0,18.0,975.75,882.0,9
466.5,54.75,-85.5,-43.5,663.5,69.0,785.75,774.25,9
415.25,-12.0,-37.75,142.25,887.25,172.5,592.75,780.5,9
302.75,19.0,-41.25,86.75,797.75,168.5,541.75,805.5,9
221.75,25.75,-81.0,36.0,913.0,232.0,529.75,764.5,9
117.5,-1.5,-82.75,63.25,912.75,213.25,589.25,734.25,9
61.0,-20.25,-62.25,37.5,882.75,183.25,613.75,662.0,9
76.75,-41.25,-34.25,-84.5,608.0,299.25,582.75,663.75,9
2.75,2.5,-49.25,-248.0,122.75,315.25,589.75,685.25,9
41.5,8.5,-16.5,-257.0,-239.0,310.5,460.0,698.5,9
321.5,4.75,28.0,-68.75,-706.75,130.75,310.75,669.0,9
471.0,-21.0,3.75,70.25,-977.0,78.0,197.0,652.0,9
463.75,-45.75,-26.75,1.0,-1138.5,138.25,-16.25,613.25,9
373.75,-64.75,-36.0,149.25,-1295.5,137.0,-183.0,464.75,9
202.5,-79.5,-67.5,214.5,-1388.0,154.5,-229.75,324.0,9
21.25,-91.75,-35.0,165.25,-1287.5,130.75,-163.0,221.25,9
-56.5,-96.5,132.0,179.25,-1221.75,88.5,-43.0,105.25,9
83.5,-71.25,233.5,128.0,-1320.75,11.25,90.5,-23.25,9
34.75,-55.25,243.5,66.75,-1373.25,4.25,168.75,-93.0,9
-71.5,-32.75,173.25,-178.5,-1193.75,1.75,299.0,-158.25,9
9.0,-47.5,159.0,-172.0,-1127.0,-74.75,623.5,-213.75,9
89.75,-53.0,231.75,133.0,-1240.25,-209.5,508.75,-284.5,9
197.0,-42.0,185.0,270.75,-1040.25,-289.0,20.5,-367.75,9
39.75,-37.0,68.0,109.5,-1038.0,-324.25,-64.0,-411.25,9
-345.5,-35.5,18.25,-44.5,-1060.25,-381.5,-62.75,-427.5,9
-614.5,-39.0,21.5,16.5,-1159.75,-431.5,-324.0,-399.75,9
-616.5,-44.25,-26.25,114.5,-1049.25,-443.5,-414.25,-301.75,9
-578.25,-56.75,-208.5,243.5,-620.25,-352.75,-318.25,-235.5,9
-555.75,-66.25,-339.75,304.25,-433.5,-281.75,-391.75,-236.5,9
-567.75,-78.25,-260.25,345.75,-256.75,-210.5,-241.25,-216.0,9
-617.75,-42.75,-108.75,347.75,-231.25,-181.0,-26.5,-175.0,9
-362.75,-22.0,160.25,200.25,-228.0,-273.75,-305.5,-138.75,9
-30.75,25.25,245.5,-27.0,-244.0,-342.5,-386.0,-115.75,9
224.0,106.75,169.0,-242.5,-247.75,-369.5,-275.75,-89.0,9
356.75,115.75,182.75,-236.25,-70.25,-265.5,-312.5,-91.0,9
243.5,49.5,186.5,-115.25,183.25,-108.0,-426.75,-90.75,9
107.75,4.5,144.25,-107.75,282.25,-113.25,-424.5,-99.0,9
-41.5,35.0,36.25,-150.25,-54.0,-226.25,71.25,-105.0,9
-68.75,83.0,-187.5,-262.5,-536.25,-134.0,590.5,-86.0,9
-196.0,129.25,-375.25,-315.25,-1091.0,-35.75,592.0,-86.75,9
-370.0,154.5,-318.5,-54.25,-1053.0,-54.25,284.75,-118.75,9
-250.5,123.0,-66.0,5.0,-937.0,105.0,91.0,-145.25,9
78.75,78.5,227.0,-281.5,-925.0,168.25,-71.5,-140.0,9
252.75,34.75,309.75,-81.75,-802.25,216.5,-1.0,-122.5,9
73.5,-5.5,338.75,83.25,-783.25,315.5,-138.5,-115.5,9
81.25,-4.25,303.0,-40.25,-878.25,402.0,-209.0,-95.5,9
-23.5,21.0,170.75,12.75,-958.75,564.25,88.75,-67.25,9
-568.75,43.0,13.0,17.5,-915.75,661.5,-215.0,-22.25,9
-1012.25,9.75,-79.5,-69.25,-911.25,708.25,-528.75,13.25,9
-658.25,-15.75,-89.5,-191.5,-986.75,725.0,-510.0,-18.25,9
173.5,-22.0,-104.75,-72.25,-883.5,708.5,-254.25,-70.75,9
644.0,-4.5,-70.0,144.75,-941.0,671.75,16.5,-197.5,9
979.5,17.0,-93.5,158.75,-942.5,606.0,-44.75,-293.25,9
612.25,3.75,-123.25,132.0,-729.75,520.25,133.5,-339.5,9
121.5,15.25,-130.5,55.25,-505.5,604.0,957.0,-366.75,9
495.0,-16.0,-189.25,-221.0,-336.75,725.25,1206.25,-357.25,9
655.0,-28.5,-216.75,-304.0,-297.25,642.25,1393.75,-366.25,9
626.25,-30.75,-146.0,26.75,-131.25,477.0,1114.5,-353.5,9
565.0,-25.25,-81.25,68.25,-219.5,357.0,251.25,-321.25,9
68.0,-17.25,-124.5,-134.0,-261.0,293.75,-691.25,-297.0,9
-464.0,-33.75,-116.75,-142.25,-99.0,227.0,-587.0,-291.5,9
-326.5,14.75,-99.5,-202.5,41.25,85.75,-519.25,-341.5,9
580.5,26.5,-83.75,-191.0,381.25,-80.0,-601.25,-457.25,9
863.25,39.0,-62.0,-200.5,475.0,-41.75,-706.25,-555.5,9
1022.5,72.25,-117.75,-248.25,483.25,18.0,-840.75,-567.75,9
1351.0,22.0,-126.75,-154.0,715.25,-70.0,-855.5,-537.5,9
1239.0,-70.75,-79.0,-104.25,978.0,26.0,-821.25,-538.75,9
1073.5,-145.75,-59.25,-92.5,900.0,-82.0,-817.5,-513.0,9
605.5,-58.25,-213.0,-247.25,731.5,-313.0,-562.5,-496.0,9
-82.75,-20.0,-247.25,-272.25,785.5,-384.5,92.25,-429.25,9
-595.75,-10.0,-4.75,-283.5,727.0,-386.25,807.75,-332.75,9
-920.25,-19.75,92.25,-124.75,1226.5,-191.25,1113.75,-256.0,9
-1033.5,11.0,-26.0,-196.5,760.75,-232.75,1041.25,-95.25,9
-970.0,208.0,8.75,-388.25,481.75,-154.25,925.75,-79.25,9
-1045.0,53.75,261.25,66.0,1381.75,96.25,473.25,-68.75,9
-1153.0,15.75,380.0,22.5,1280.5,97.25,195.0,-15.75,9
-487.5,166.75,295.5,-0.25,1682.5,168.25,-10.25,-89.5,9
-116.5,69.5,162.25,159.25,1644.5,236.0,89.5,-92.5,9
-58.75,106.25,-88.5,-44.5,1165.25,153.25,982.75,-74.0,9
222.0,25.0,-252.0,92.0,1493.25,104.75,1384.25,-71.75,9
105.5,9.5,-435.25,-24.25,939.25,-111.75,1494.75,-6.5,9
-40.5,123.0,-586.5,-157.5,674.75,-369.0,1402.0,67.25,9
-18.25,253.0,-346.0,-341.75,-47.5,-697.0,430.0,345.75,9
173.5,763.0,-231.25,-640.25,-657.75,-969.0,-944.75,640.5,9
204.0,753.75,-186.75,-583.0,-387.5,-752.25,-1252.0,670.25,9
-57.0,621.25,-114.25,-414.75,-365.25,-796.75,-1248.75,587.75,9
-77.5,584.0,-182.0,-239.75,-177.0,-739.5,-832.0,436.25,9
-150.75,462.25,-179.0,-54.5,133.5,-665.25,-121.5,474.0,9
-265.5,372.5,-112.0,40.5,199.5,-580.0,938.25,391.25,9
-226.0,166.25,76.25,90.0,1037.5,-388.75,1020.5,187.75,9
-50.25,-6.0,129.75,-34.5,1247.0,-403.25,498.5,14.0,9
-42.75,-63.75,158.5,-115.75,1471.0,-185.75,-89.5,-261.0,9
-257.5,-171.0,195.0,-290.0,1479.5,-150.25,-323.75,-327.0,9
-146.25,-195.75,267.75,-179.0,1663.25,-128.25,-398.25,-369.25,9
-110.5,-265.25,337.0,161.5,1658.75,-268.5,-537.25,-304.5,9
219.25,-221.75,88.25,334.25,1665.0,-332.0,-841.75,-282.75,9
341.75,-240.75,-105.75,276.75,1858.25,-270.5,-553.25,-124.75,9
219.75,-285.75,86.5,281.75,1940.25,-335.5,-168.75,211.25,9
165.25,-295.25,253.0,496.0,2147.75,-318.25,-158.5,521.25,9
246.25,-306.75,211.5,613.5,2156.0,-330.0,87.0,604.75,9
280.25,-309.25,82.0,668.25,2084.75,-341.75,359.0,599.5,9
261.75,-358.25,44.25,730.5,1947.0,-368.25,414.5,591.25,9
274.5,-368.5,216.25,791.25,1695.0,-388.25,374.25,638.75,9
218.0,-381.5,116.5,617.75,1345.0,-489.25,419.75,563.75,9
236.0,-375.5,56.0,545.25,1054.5,-549.5,626.5,271.25,9
113.75,-418.75,300.0,569.75,647.25,-550.25,645.25,-30.75,9
-56.25,-526.75,558.25,654.5,257.0,-535.75,550.5,-292.5,9
-261.25,-510.25,609.75,546.0,36.0,-497.75,591.0,-506.25,9
-325.25,-515.5,490.5,465.5,-66.0,-449.0,664.0,-680.75,9
-345.5,-525.25,569.75,610.0,-454.5,-458.5,588.25,-523.25,9
14.5,-140.75,407.0,215.75,-1357.75,-709.25,406.25,-183.75,9
680.75,115.25,240.25,34.5,-1374.25,-528.25,7.75,-238.5,9
806.25,-134.0,259.75,151.25,-470.25,54.0,-1112.0,-555.75,9
490.25,-394.25,248.0,83.0,5.25,761.5,-1137.0,-771.0,9
-112.25,-464.5,361.25,191.5,-88.25,1142.5,-1136.25,-734.5,9
-526.25,-469.5,432.75,485.75,-349.5,1201.75,-940.5,-669.25,9
-288.5,-446.5,352.25,525.0,-679.0,1369.75,-534.0,-757.5,9
-114.0,-399.0,291.5,334.75,-1329.75,1222.25,-718.5,-731.0,9
-517.25,-356.75,197.0,127.75,-1753.75,1117.5,-285.5,-743.75,9
-1199.5,-439.75,219.75,88.25,-2368.75,1121.75,28.0,-667.25,9
-1170.0,-301.25,104.75,205.0,-2953.5,1022.25,69.5,-584.75,9
-1152.5,-237.25,3.5,-5.25,-3039.0,996.0,173.5,-502.75,9
-414.5,-46.0,-221.0,-217.5,-2960.0,931.25,121.0,-374.0,9
293.5,34.0,-404.75,-70.0,-2725.0,957.75,-276.75,-385.0,9
-57.25,65.5,-328.5,-195.75,-2745.75,887.0,-538.5,-273.25,9
-698.25,183.5,-174.75,-436.0,-2585.0,878.0,-618.25,-159.5,9
-803.5,182.25,-38.75,-424.0,-1993.5,911.75,-864.75,22.75,9
-863.75,238.0,3.5,-307.25,-1415.25,921.5,-993.0,256.75,9
-995.75,356.5,-131.5,-390.75,-1028.25,934.0,-982.5,426.25,9
-1093.25,421.5,-233.0,-337.75,-592.5,986.0,-813.25,437.75,9
-1227.75,328.0,-236.75,-161.0,-7.75,957.0,-365.0,328.5,9
-1110.0,264.25,-273.25,-76.0,245.25,816.75,185.0,244.25,9
-971.75,273.0,-380.5,-186.5,485.75,689.25,330.75,150.75,9
-725.0,250.5,-462.75,-249.75,680.5,624.0,560.0,163.75,9
-543.5,199.5,-448.75,-57.75,874.0,612.75,1046.25,175.25,9
-210.25,137.0,-471.75,-28.5,822.75,483.75,1487.75,236.25,9
109.5,89.25,-443.5,54.25,886.0,258.75,1549.25,319.75,9
280.25,116.0,-381.5,-13.0,992.25,88.75,1306.0,348.75,9
291.5,195.5,-326.5,-213.75,1114.25,97.0,376.25,348.75,9
333.0,221.0,-245.5,-312.75,1180.25,290.75,-243.0,330.5,9
536.25,284.75,-218.5,-497.75,1259.0,509.5,-231.75,393.0,9
621.75,361.0,-213.5,-512.5,1409.5,523.75,-114.75,462.0,9
717.25,318.25,-139.25,-417.75,1526.75,178.25,-118.25,493.0,9
801.75,242.0,-118.75,-330.5,1534.75,-244.25,-289.75,511.25,9
1214.5,252.25,-181.75,-346.75,1250.25,-910.25,-377.0,506.5,9
1503.5,258.75,-151.25,-410.75,1176.25,-985.75,258.5,392.25,9
1526.5,168.5,-142.5,-311.0,1397.5,-937.75,664.75,247.75,9
1427.75,31.0,-116.25,-175.0,1615.25,-833.75,631.25,156.75,9
1250.75,-17.0,-144.5,-247.25,1507.0,-912.25,-137.75,171.25,9
1117.75,49.0,-198.5,-499.25,1177.75,-892.5,-402.5,266.5,9
1295.0,194.75,-229.25,-775.5,1136.5,-929.0,249.0,307.0,9
497.5,248.5,-282.0,-912.75,1315.5,-936.75,795.5,295.0,9
-432.0,177.25,-218.25,-611.75,1469.75,-1211.25,799.5,211.75,9
-302.0,192.5,-73.25,-234.0,1218.5,-1173.75,255.5,160.25,9
-151.0,315.5,10.25,-264.5,1082.75,-1129.5,224.5,142.75,9
767.25,225.5,-48.0,2.5,1650.0,-1032.5,215.75,56.25,9
1600.0,-6.5,-92.0,560.25,1954.25,-855.25,-108.75,54.5,9
1214.75,-31.5,-22.75,376.5,1757.0,-868.5,-322.25,222.5,9
-517.5,-1.75,56.75,-209.75,1541.75,-935.5,-267.75,313.25,9
-575.5,-53.0,65.75,-235.0,1427.25,-1019.75,-417.75,407.75,9
-440.5,78.75,68.75,-79.0,607.25,-1126.5,-679.5,563.5,9
-291.75,328.5,44.0,-204.5,229.5,-1107.75,-777.0,552.25,9
-428.5,406.75,23.0,-220.0,166.0,-945.25,-1079.0,542.25,9
-738.75,531.5,33.25,-56.75,31.25,-997.25,-1257.5,685.25,9
-1141.25,656.75,-50.5,-86.75,96.25,-1131.75,-1222.0,823.75,9
-1037.0,598.5,-78.75,-186.75,125.75,-1028.75,-1005.5,775.75,9
-294.25,506.75,-24.5,-308.75,325.25,-833.5,-970.0,723.0,9
291.75,388.5,-41.75,-217.5,843.5,-794.75,-937.75,613.5,9
656.5,105.75,55.5,-343.0,1432.0,-758.5,-692.0,557.5,9
508.0,-3.0,246.25,-748.75,1675.75,-405.5,-534.0,429.25,9
388.75,2.75,456.5,-495.75,1976.5,-87.5,-558.75,247.5,9
291.5,-122.75,646.0,-74.25,2101.5,232.5,-727.0,108.75,9
273.5,-190.75,515.5,113.5,1943.75,488.0,-622.25,-43.5,9
373.0,-251.0,350.5,451.75,1720.5,142.75,-420.75,-233.0,9
402.75,-261.0,353.5,602.5,1317.75,-289.25,-431.0,-370.5,9
36.5,-325.25,291.25,380.5,926.25,-90.0,-359.0,-426.0,9
-954.25,-338.25,297.0,352.25,635.0,48.0,-278.25,-511.5,9
-1032.0,-308.25,171.5,524.25,536.25,160.75,-465.25,-556.0,9
-1100.5,-243.5,23.25,217.75,621.75,367.75,-572.5,-635.75,9
-539.0,41.0,-37.25,239.25,896.0,462.0,-558.5,-691.5,9
-753.25,82.25,-35.5,462.25,1041.0,600.25,-515.75,-688.75,9
-1219.5,-305.0,10.0,410.5,1118.25,590.0,-363.5,-748.75,9
-1125.75,-382.75,-69.5,457.75,1017.0,626.5,-119.75,-697.0,9
-1033.5,-168.75,-59.0,543.5,755.75,562.75,119.25,-533.0,9
-337.75,130.25,-89.5,455.5,411.75,371.5,326.0,-514.5,9
81.75,148.0,-93.0,474.25,310.5,364.0,599.5,-606.0,9
251.0,-214.25,-170.0,629.25,254.25,488.25,592.5,-563.5,9
-180.5,-60.5,-290.0,525.5,286.25,781.0,232.75,-377.25,9
-479.5,206.5,-200.25,336.0,390.25,1251.75,139.75,-179.25,9
-117.0,-151.5,-37.25,401.25,426.75,1258.0,540.75,-531.25,9
474.75,-959.0,382.25,474.5,427.5,1066.25,854.0,-863.0,9
499.5,-1203.75,531.0,524.75,369.5,1062.5,1051.75,-815.5,9
-664.25,-1412.75,249.25,428.75,321.25,1029.5,1132.5,-664.0,9
-1255.5,-1244.25,217.75,336.5,235.5,909.5,1102.5,-531.75,9
-1042.25,-943.75,79.75,229.75,6.75,835.5,1142.75,-216.75,9
-420.5,-813.25,0.5,143.0,-438.0,781.5,1182.5,-261.25,9
109.0,-56.75,47.75,193.0,-1036.25,650.5,1299.5,-309.75,9
-83.5,540.0,-22.0,100.25,-1635.0,413.25,1472.25,-140.75,9
667.5,84.0,5.5,42.75,-2151.75,284.75,1300.75,-95.5,9
754.25,-423.5,-53.5,65.25,-2395.75,87.75,1065.75,-335.75,9
850.0,-668.5,-98.0,-73.25,-2418.75,-155.25,991.25,-493.75,9
-924.5,-619.25,-131.25,-81.75,-2456.0,-284.0,842.75,-304.75,9
-978.25,-375.0,-159.75,-178.5,-2463.75,-238.25,568.0,-269.25,9
-707.25,-710.5,-158.25,-276.75,-2477.75,-251.0,383.0,-705.5,9
244.0,-299.75,-181.0,-328.25,-2437.5,-382.75,535.75,-824.5,9
106.0,253.75,-196.75,-379.75,-2268.75,-418.0,547.75,-715.75,9
-144.75,267.0,-188.5,-372.75,-2274.0,-467.75,435.25,-794.0,9
310.5,341.25,-194.5,-337.5,-2345.25,-513.75,292.0,-767.5,9
929.25,667.5,-202.75,-339.25,-2415.5,-392.0,42.25,-775.5,9
1739.25,819.25,-192.5,-261.25,-2376.0,-408.25,-458.25,-638.75,9
1336.25,1257.75,-199.75,-213.0,-2347.25,-508.0,-959.75,-771.25,9
702.75,1286.0,-195.5,-304.5,-2301.0,-429.25,-1149.75,-465.0,9
1408.75,1318.0,-181.75,-346.25,-2273.25,-452.0,-1284.5,198.25,9
1233.0,1362.5,-129.5,-365.75,-2127.5,-394.25,-1174.5,499.75,9
372.75,860.0,-75.5,-185.75,-1914.0,-311.75,-1292.5,673.5,9
-641.25,-588.0,-48.75,-114.5,-1814.5,-371.5,-1565.0,578.75,9
166.0,-629.75,-70.25,-107.75,-1839.75,-269.5,-1062.0,550.0,9
-806.5,-700.0,-90.5,-70.25,-1955.75,-181.75,-492.0,535.75,9
-1090.25,-762.75,-150.5,-241.25,-2083.75,-117.75,-251.25,590.0,9
-990.75,-824.25,-258.5,-254.0,-2093.5,0.75,-187.5,768.0,9
-915.0,-838.25,-253.5,-218.75,-1985.75,-26.25,23.25,945.0,9
-1003.5,-819.75,-151.25,-169.25,-1780.75,-107.0,-328.75,1114.75,9
-1137.5,-839.5,-42.75,-119.5,-1611.0,-181.25,-466.5,1131.0,9
-1031.5,-669.75,-30.25,-307.5,-1461.0,-188.0,-197.75,1133.75,9
-264.0,-15.75,-113.5,-450.0,-1297.0,-105.0,42.25,1127.25,9
447.0,-121.25,-234.5,-493.75,-1183.75,-81.75,50.75,1131.75,9
848.0,-704.25,-246.25,-325.0,-1007.0,-92.75,-497.5,1121.75,9
1273.25,-780.25,-61.75,21.75,-1046.0,-119.75,-886.25,1135.5,9
1421.5,-498.5,70.0,50.25,-1219.75,-59.75,-823.25,1146.25,9
1522.5,11.75,90.5,180.25,-1359.25,2.5,-27.5,1152.25,9
1528.0,502.25,69.0,272.0,-1449.75,-2.5,699.75,1136.5,9
1346.25,593.5,-16.75,67.25,-1441.75,11.0,497.5,1136.0,9
1066.5,729.75,-10.0,64.75,-1558.0,-66.5,122.25,1130.5,9
876.5,919.25,24.0,-0.75,-1679.75,-15.25,-202.25,1105.0,9
733.0,910.0,90.5,-21.0,-1877.5,-13.75,-37.5,1090.75,9
650.75,895.0,142.25,-120.75,-1926.0,-74.75,374.0,1053.25,9
707.0,415.75,171.0,-101.25,-1741.25,-59.75,271.0,1044.0,9
697.5,-36.5,152.75,81.25,-1609.0,-242.0,112.0,1043.0,9
-795.75,64.75,81.5,86.25,-1506.25,-301.75,202.25,975.5,9
-1340.0,951.0,68.5,35.25,-1385.75,-325.0,553.75,858.25,9
-1143.5,959.25,-2.75,-6.25,-1301.25,-517.25,497.0,781.0,9
-908.0,984.5,-9.25,141.75,-1302.75,-306.5,513.0,713.5,9
-685.75,296.0,17.25,167.25,-1313.25,338.5,789.25,701.5,9
45.0,-286.25,14.0,72.0,-1191.5,539.5,796.5,506.0,9
-269.0,-642.5,-2.75,-63.5,-851.5,425.5,760.25,335.5,9
-1086.0,-191.0,-28.5,-185.75,-281.5,422.75,553.0,279.0,9
-1537.25,-82.5,-2.5,-173.5,364.0,387.25,426.5,138.5,9
-1459.25,668.5,9.0,-166.0,616.75,388.25,304.25,-83.0,9
-1487.0,1050.5,1.75,-111.0,411.25,318.0,313.25,-370.75,9
-1267.0,-136.75,14.75,-5.75,542.5,430.5,537.75,-491.5,9
-951.0,-785.5,-8.25,-20.5,799.25,553.0,510.25,-635.75,9
-482.75,-949.75,-8.75,-24.25,783.5,433.75,520.5,-753.5,9
-206.0,-1008.5,48.25,96.25,895.75,192.5,381.5,-805.0,9
-246.25,-1084.75,59.5,77.25,1184.25,-59.75,41.25,-870.75,9
-465.25,-1124.5,26.25,-25.0,1550.75,-224.5,-60.75,-872.75,9
-124.25,-1158.75,3.25,-65.5,1627.25,-580.0,167.5,-870.5,9
327.75,-1146.5,9.75,-63.0,1514.75,-925.75,449.0,-860.75,9
585.5,-559.25,19.0,57.0,1476.5,-928.0,360.5,-879.0,9
561.25,349.75,75.5,96.5,1297.75,-906.75,135.0,-896.5,9
-177.25,921.5,114.5,54.25,1168.75,-825.25,-15.75,-917.0,9
-778.5,903.25,120.0,-16.75,1493.0,5.5,2.0,-938.0,9
-352.75,938.25,105.0,29.25,1687.0,882.5,-152.0,-947.5,9
629.5,870.0,21.5,73.25,1741.5,979.0,-261.5,-974.25,9
1323.75,730.0,-79.5,-46.0,1776.5,974.25,2.0,-996.25,9
1355.25,731.75,-144.0,-16.5,1998.75,1003.0,196.0,-1008.0,9
1325.75,668.75,-91.5,-39.25,2282.5,984.75,210.5,-1024.5,9
1322.75,669.0,-50.5,-109.75,2282.0,1018.0,80.5,-1048.0,9
591.25,543.25,-22.5,-12.5,2127.5,1012.75,223.25,-1051.0,9
397.0,534.0,4.25,147.25,2071.0,940.5,331.5,-1037.0,9
36.25,521.75,-32.75,193.75,2197.0,857.75,318.5,-1034.75,9
-444.75,580.0,-6.5,50.75,2276.75,779.25,342.25,-1052.0,9
-1145.0,580.5,7.25,-45.0,2417.0,689.5,157.0,-1060.75,9
-1098.0,570.25,35.5,-91.75,2457.25,631.0,151.5,-1067.5,9
-444.5,560.75,91.0,31.5,2310.5,527.5,311.75,-821.5,9
-680.5,545.25,114.5,276.5,2137.5,373.75,312.5,-586.5,9
-1123.5,586.0,94.0,225.0,2131.5,189.75,251.75,-443.25,9
-1196.75,647.75,6.5,106.75,2155.5,4.75,232.25,-330.0,9
658.0,753.0,-109.25,-84.0,2123.0,-143.25,118.25,-273.0,9
677.0,820.25,-107.25,-184.75,2207.25,-206.75,103.75,-261.5,9
660.5,678.5,-12.0,-143.5,2266.25,-201.0,377.25,-268.25,9
695.0,326.25,3.0,-189.25,2202.5,-193.25,448.5,-255.25,9
216.5,-53.75,2.0,-133.25,2215.0,-237.75,146.25,-259.5,9
84.75,-327.25,-4.5,-111.5,2325.75,-279.0,55.75,-214.5,9
-609.5,-405.0,-11.25,-132.5,2275.0,-277.5,196.0,-171.75,9
-719.5,-497.0,55.25,180.0,2014.5,-237.5,355.5,-137.25,9
-1146.25,-597.25,46.75,300.0,1658.25,-146.5,419.75,-120.25,9
-1149.75,-636.5,-18.0,151.5,1281.25,-91.0,302.25,-95.75,9
-1108.5,-581.0,-15.5,118.25,1365.0,-43.5,139.5,-67.75,9
-1149.0,-354.0,-74.5,-22.75,1508.0,-88.75,35.5,-58.5,9
-1085.5,-188.25,-125.5,-29.5,1447.25,-204.25,29.25,-29.75,9
-971.25,-162.75,-110.5,-113.0,1567.25,-272.0,-7.75,-31.5,9
-851.5,-206.25,-45.25,-188.25,1537.5,-363.25,200.5,-13.5,9
-774.5,-248.75,46.0,-146.5,1468.25,-369.5,475.25,-51.5,9
565.75,-243.5,61.75,-110.0,1438.25,-329.5,665.0,-98.0,9
1152.25,-247.0,36.75,-113.0,1268.0,-235.0,941.0,-118.75,9
708.75,-257.5,46.25,-52.0,1316.75,-179.0,907.5,-192.5,9
299.25,-261.25,60.25,43.75,1265.25,-203.75,601.5,-243.5,9
17.0,-236.25,3.5,40.0,1174.0,-139.25,226.75,-267.0,9
22.0,-133.0,-45.75,26.25,1065.0,-87.0,-179.0,-274.25,9
98.0,75.75,-52.5,-12.5,941.75,-29.5,-424.0,-261.75,9
301.75,339.25,-49.0,108.75,950.5,-37.75,-496.5,-217.0,9
478.25,569.5,-51.0,91.0,950.0,-54.5,-401.0,-184.75,9
386.5,862.5,-64.25,56.75,739.25,-124.25,-255.25,-208.0,9
364.75,989.25,-40.5,92.5,449.75,-157.75,-113.5,-249.75,9
221.0,727.5,-41.0,36.5,395.5,-92.25,48.5,-277.25,9
-234.25,252.25,-57.25,-43.75,365.0,-137.0,-152.5,-294.5,9
-512.5,-186.5,-26.25,-62.75,450.25,-121.0,-513.75,-248.5,9
-416.0,-290.25,-2.0,2.75,576.25,-107.25,-571.0,-172.5,9
-354.75,492.75,16.0,-19.5,832.0,-177.5,-574.25,-79.5,9
-258.5,957.25,41.0,-30.0,1165.25,-30.5,-524.0,49.5,9
-161.75,966.0,16.5,-9.75,1057.75,194.0,-501.75,165.25,9
-142.75,1006.25,-25.5,-74.0,1043.0,178.0,-206.5,215.75,9
-36.25,-726.5,1.0,-104.0,1017.75,221.0,114.0,276.0,9
73.5,-1022.25,18.25,-49.25,546.5,242.25,-130.5,355.5,9
178.25,-1037.5,-23.5,80.5,199.0,169.25,-91.75,408.0,9
229.5,-1061.0,-37.0,122.75,302.5,195.5,47.5,478.5,9
163.0,-1066.25,-24.25,5.25,495.0,155.0,117.0,506.25,9
380.5,-1041.5,-31.0,154.0,543.25,7.5,95.75,538.75,9
1086.75,-1023.0,17.75,276.0,464.5,-146.0,-43.0,551.25,9
1094.75,-593.0,-7.5,104.5,491.5,-181.25,49.75,519.25,9
1050.5,-444.5,-34.0,-79.5,783.0,-165.0,-261.0,510.0,9
476.0,296.25,55.0,-153.75,859.0,-196.75,-365.25,515.0,9
-251.5,623.75,60.75,-140.75,615.75,-102.25,-376.0,545.0,9
-247.5,451.25,54.25,-174.5,250.5,-92.0,-313.75,544.5,9
-287.5,472.0,28.25,-126.5,-81.5,-369.25,292.75,521.25,9
-328.0,473.0,11.75,-95.5,-516.75,-587.5,456.0,512.0,9
-393.0,640.75,59.0,-107.75,-868.75,-663.25,182.25,535.5,9
-539.0,732.5,110.5,-109.25,-695.25,-395.25,-235.0,570.25,9
-613.75,845.0,130.5,-166.0,-419.75,24.0,-328.75,609.75,9
-799.25,825.0,129.5,-88.25,-413.75,67.25,-79.0,644.25,9
-1029.0,784.75,154.0,25.0,-383.25,195.5,347.0,662.75,9
-1001.75,780.25,132.5,41.25,-444.5,327.75,1014.5,654.0,9
-1015.5,774.75,90.25,18.0,-833.5,255.5,640.25,662.5,9
-173.0,723.75,-2.25,-33.0,-1272.5,146.75,-57.25,659.25,9
362.75,593.75,-153.0,-60.0,-1701.0,141.0,89.75,618.5,9
864.75,515.25,-141.25,-17.0,-1945.75,217.5,55.0,567.0,9
795.5,439.0,-71.0,9.75,-1855.0,172.25,229.5,502.0,9
820.0,415.5,-120.5,-32.0,-1804.0,134.5,756.5,466.25,9
680.25,389.25,-63.5,-31.75,-1612.25,-29.75,1073.75,430.5,9
-91.25,351.5,28.25,-4.0,-1493.25,-169.25,1083.5,403.0,9
-670.75,320.0,59.5,10.0,-1720.25,-150.0,771.25,371.5,9
-526.25,269.5,22.75,53.75,-1743.75,-42.5,243.5,295.75,9
461.75,231.25,-18.5,56.75,-1250.25,75.25,-369.25,228.25,9
713.75,185.75,54.5,69.25,-579.0,161.5,-804.5,104.0,9
970.0,111.75,71.5,99.75,-232.0,243.5,-1301.75,-21.75,9
1046.5,55.0,74.0,-47.75,-220.5,159.25,-1361.75,-29.5,9
984.0,6.75,43.75,-251.25,-252.0,-48.0,-1036.5,-28.0,9
628.25,-22.25,81.0,-165.25,-187.75,-212.0,-287.5,-37.25,9
61.75,-31.75,82.0,-32.0,-235.0,-330.5,402.0,-80.5,9
-246.0,-34.0,11.75,10.75,-347.25,-386.75,348.5,-113.0,9
-429.5,-5.5,17.0,80.5,-350.0,-268.5,156.25,-153.0,9
-458.75,1.5,-56.5,60.25,-470.75,-156.5,-127.25,-204.0,9
-504.75,6.0,-77.25,70.5,-794.5,-154.25,-913.25,-201.0,9
-305.0,17.0,-57.25,91.75,-1195.0,-69.5,-1892.75,-202.5,9
-233.75,21.5,-55.0,138.0,-1436.25,-131.75,-1648.25,-213.25,9
-46.0,-1.5,-94.25,211.25,-1611.0,-263.0,-1407.5,-256.25,9
58.0,-53.5,-144.5,126.5,-1820.25,-328.75,-1490.25,-285.75,9
87.5,-70.5,-128.5,-44.5,-1928.75,-390.75,-1148.75,-276.75,9
55.0,-87.0,-78.75,-130.0,-1933.75,-273.75,43.5,-269.25,9
-45.25,-96.75,-50.25,-156.25,-1797.0,-90.5,616.25,-283.75,9
-60.5,-84.75,19.75,-162.0,-1630.0,109.0,907.5,-282.5,9
-99.75,-69.5,74.0,-94.75,-1521.5,283.75,681.75,-286.25,9
-105.5,-71.75,3.0,-81.5,-1111.25,404.75,-377.5,-285.5,9
-145.25,-61.0,-113.0,-58.0,-574.75,414.75,-761.75,-243.5,9
-97.25,-29.75,-194.75,41.5,-319.25,397.5,-1042.5,-205.5,9
-85.25,-38.75,-197.75,56.25,-144.5,369.25,-870.0,-147.25,9
-76.75,-92.25,-176.5,44.75,30.75,292.5,-1022.0,-142.75,9
-95.75,-122.5,-170.5,-17.25,216.25,338.75,-1005.75,-157.25,9
-88.5,-111.5,-149.25,-97.25,158.25,363.5,-634.5,-134.0,9
-66.25,-116.25,-78.25,-106.25,107.5,474.5,-615.25,-122.0,9
-67.25,-98.75,-62.75,-111.25,200.5,612.75,-491.25,-105.0,9
-55.75,-79.75,-46.75,20.25,247.25,556.5,-499.75,-81.25,9
-64.75,-99.75,37.5,130.0,297.5,459.5,-717.0,-47.25,9
-31.0,-89.75,134.5,187.25,445.25,421.0,-950.25,-35.0,9
-48.75,-67.75,225.75,185.5,746.75,477.25,-283.0,-37.25,9
-121.0,-46.75,272.75,68.5,946.25,371.5,309.75,2.75,9
-247.0,-46.25,305.5,33.25,914.5,93.75,353.0,44.75,9
-274.25,-51.75,206.0,-104.0,708.75,-178.25,371.0,51.25,9
-250.75,-64.5,97.5,-170.25,549.25,-521.25,-176.25,23.25,9
-151.75,-62.0,38.75,-136.0,428.75,-696.75,-433.0,-6.0,9
8.75,-49.0,-10.0,-135.75,342.5,-536.25,-715.75,-32.75,9
108.0,-63.0,32.25,13.0,319.0,-410.25,-1462.5,-57.25,9
121.25,-59.75,41.75,81.0,285.75,-160.25,-1840.75,-34.5,9
-169.75,-41.0,12.25,-44.0,277.25,165.5,-1933.25,-6.5,9
-377.75,-42.5,-8.25,-22.75,281.75,173.5,-1119.5,34.0,9
-377.25,-30.25,-15.25,41.5,471.0,248.25,-326.5,1.0,9
-292.5,0.25,-53.5,27.0,672.0,496.25,-314.0,-65.75,9
127.25,-13.5,-113.5,55.75,588.25,698.25,-87.5,-61.5,9
390.0,-27.25,-163.0,-31.5,423.25,758.0,-367.75,-77.5,9
412.75,-20.25,-224.75,16.25,286.0,712.0,-290.25,-64.5,9
377.25,-0.5,-273.5,22.75,99.0,632.75,-181.25,-39.0,9
245.0,9.75,-259.5,-142.25,-211.5,489.0,-27.0,-36.25,9
143.5,6.75,-233.0,-238.5,-534.5,252.5,614.0,29.5,9
166.5,36.5,-237.75,-289.0,-540.5,-174.5,479.0,132.0,9
341.75,47.0,-199.0,-274.25,-543.75,-400.5,158.5,268.75,9
533.25,33.5,-90.25,-229.0,-562.75,-250.5,-33.25,301.5,9
594.25,21.25,-11.75,-165.5,-558.75,-20.0,-23.75,259.5,9
434.5,-8.5,60.75,-166.75,-505.5,159.0,-145.25,256.75,9
209.25,-34.5,202.5,-161.0,-502.25,83.0,-597.0,420.0,9
102.0,-84.5,378.25,-511.5,-836.75,-353.75,158.5,945.0,9
435.0,-43.0,657.0,-586.0,-1156.75,-737.0,1674.0,986.5,9
406.0,378.75,526.75,-466.25,-1145.75,-653.0,1791.5,934.5,9
272.5,655.0,159.0,-533.25,-1153.5,-431.25,2136.25,991.5,9
319.75,646.25,176.75,-478.75,-1224.0,-325.0,2069.75,794.25,9
286.5,656.0,-4.75,-357.75,-1070.25,24.0,1066.0,724.5,9
278.75,626.5,-102.75,-274.25,-933.0,152.5,-65.0,661.5,9
301.75,576.5,-106.0,-98.0,-807.0,445.0,-116.0,563.5,9
241.75,535.0,-189.0,-10.5,-933.25,416.0,-19.25,515.75,9
169.25,457.75,-152.0,98.25,-640.25,334.5,205.0,190.75,9
13.5,432.5,-159.75,59.75,-117.0,389.0,487.75,37.25,9
-163.25,323.25,-136.0,110.0,514.75,430.25,914.75,-91.0,9
-468.0,179.75,-266.75,168.25,1094.5,325.0,778.25,-285.0,9
-491.75,227.5,-267.5,253.5,1184.0,34.75,266.75,-457.75,9
-499.75,269.0,-195.75,292.75,1598.25,-31.75,-176.25,-401.0,9
-620.75,122.25,-110.75,356.25,2091.25,-185.5,-198.5,-314.25,9
-697.0,79.75,51.25,401.75,2184.25,-314.5,729.0,-297.25,9
-606.5,-0.25,137.5,301.5,2180.75,-345.0,1374.0,-223.25,9
-486.0,-85.75,179.25,236.0,1956.5,-170.25,1639.5,-190.5,9
-310.0,-158.25,129.75,265.75,1444.25,-96.75,1755.5,-164.0,9
100.5,-287.25,31.5,378.5,990.0,-234.0,1746.75,-200.25,9
397.0,-290.75,-86.25,396.0,500.25,-425.0,1599.5,-139.25,9
545.25,-366.5,-135.75,496.5,547.5,-569.5,1385.25,-94.25,9
376.0,-459.0,-147.75,573.25,615.0,-488.5,1273.0,-17.25,9
101.25,-659.25,-73.5,545.0,811.0,-383.0,1183.5,100.0,9
-203.25,-830.5,29.0,641.25,1016.75,-182.75,1081.5,150.25,9
-528.25,-894.0,45.75,662.75,1150.25,-200.0,913.5,191.25,9
-681.5,-848.0,60.5,638.5,1286.25,-228.75,784.25,235.5,9
-873.0,-770.25,54.75,603.25,1276.0,-110.25,753.25,373.25,9
-895.5,-682.75,61.0,541.5,1035.25,4.0,667.25,506.75,9
-814.25,-614.0,76.25,481.25,884.5,81.5,470.25,492.75,9
-748.0,-596.0,96.0,436.0,856.5,74.25,252.25,407.75,9
-698.75,-527.0,129.75,373.25,775.0,122.0,208.5,188.25,9
-760.0,-463.5,27.75,305.75,-382.5,259.75,200.75,-408.25,9
-775.25,-417.5,-349.0,282.75,-1119.25,468.0,42.5,-582.5,9
-657.25,-372.5,-402.25,251.0,-92.5,437.5,155.5,-619.0,9
-532.0,-300.25,-185.25,213.75,1455.5,327.0,414.5,-814.75,9
-329.25,-188.5,-269.5,126.0,1166.25,425.75,478.75,-790.5,9
-59.75,-135.0,-193.75,-0.5,880.5,408.75,669.0,-773.5,9
172.0,-61.75,-129.75,-90.5,-1333.75,290.25,748.5,-745.0,9
378.25,-33.5,-32.5,-183.75,-1585.75,223.75,736.25,-719.75,9
397.25,-25.5,27.5,-251.5,-1690.0,376.5,491.0,-816.25,9
340.5,-6.25,38.5,-225.25,-1730.75,297.75,-36.5,-822.0,9
248.5,34.25,87.25,-206.0,-1776.5,-7.25,-193.25,-942.75,9
187.75,82.25,34.75,-320.5,-1749.0,-253.25,-288.75,-932.5,9
144.5,103.5,55.0,-483.5,-1794.75,-301.75,-212.0,-909.75,9
161.25,157.5,7.0,-518.75,-1852.5,-377.75,-240.75,-766.0,9
205.5,191.5,4.5,-533.5,-1865.5,-620.25,-651.25,-524.25,9
212.5,215.25,-58.0,-531.5,-1806.5,-564.25,-1503.75,-327.5,9
217.0,208.25,-97.25,-555.5,-1762.25,-363.0,-1896.0,-150.5,9
149.25,219.0,-102.5,-549.5,-1742.75,-262.25,-1869.0,9.25,9
157.25,230.0,-72.5,-447.75,-1710.25,-177.25,-1447.0,173.0,9
190.25,247.25,53.75,-376.25,-1674.0,-216.0,-1248.5,293.5,9
162.25,280.0,136.0,-293.75,-1640.25,-395.75,-1089.75,424.75,9
112.5,265.75,231.25,-245.5,-1560.5,-144.5,-782.0,540.5,9
99.0,224.0,240.0,-246.75,-1299.25,42.0,-870.75,708.0,9
139.25,141.25,191.25,-257.25,-573.75,55.5,-779.5,945.5,9
181.0,73.5,29.0,-250.75,-501.25,205.5,-831.75,1130.75,9
172.5,88.25,-249.25,-231.5,-850.5,248.0,-770.25,1175.5,9
121.0,118.75,-312.5,-243.0,-1162.0,273.5,-668.5,1103.5,9
-97.25,43.0,-142.5,-259.75,-1226.75,132.75,-664.75,1030.25,9
-507.5,-14.0,21.75,-247.25,-1007.5,31.25,-606.75,1009.75,9
-835.25,11.0,212.5,-297.5,-822.5,-139.75,-575.0,1150.75,9
-682.5,90.25,494.0,-536.5,-840.0,-486.25,-392.0,1426.75,9
447.25,496.25,643.75,-608.75,-900.5,-521.0,-373.0,1110.0,9
967.0,702.5,349.75,-556.25,-801.5,-409.25,-385.5,621.25,9
1096.0,639.25,177.0,-532.5,-737.25,-367.0,-445.0,396.25,9
1228.0,644.25,174.5,-455.75,36.25,-283.0,-509.25,287.0,9
716.25,648.25,8.5,-309.25,714.0,2.5,-326.25,348.5,9
274.0,494.0,20.75,-241.75,958.75,19.5,-144.5,252.5,9
-31.25,497.5,-60.5,-50.25,1183.0,98.75,-44.5,208.5,9
-67.5,331.5,-69.75,60.75,1044.0,148.0,-16.75,301.5,9
-145.5,252.0,-64.25,104.5,1008.25,257.25,256.25,408.0,9
-197.5,196.25,-62.0,47.75,1213.0,291.5,518.25,534.5,9
-237.5,196.25,-18.0,73.0,1419.75,338.75,525.5,436.75,9
-354.25,138.5,-64.25,106.25,1624.0,255.25,388.25,469.0,9
-223.25,-8.75,-139.5,166.5,1659.75,125.0,115.25,436.0,9
-87.0,-103.0,-373.5,180.25,1869.25,193.25,-174.0,371.5,9
162.75,-237.0,-534.75,135.5,2033.0,377.5,-319.5,406.75,9
355.0,-300.75,-573.25,236.75,2120.25,377.5,-117.75,364.75,9
613.5,-294.5,-580.5,276.25,2040.25,128.5,155.0,168.5,9
843.75,-208.5,-641.5,321.0,1791.0,-21.75,320.5,-329.0,9
821.75,-143.0,-672.5,501.75,1645.0,-165.25,708.5,-798.0,9
81.25,-443.0,-479.25,782.75,1931.5,-27.25,979.75,-948.5,9
-776.25,-821.0,-227.0,691.0,1963.75,176.5,1093.0,-1132.0,9
-796.25,-745.25,-309.5,595.25,1570.75,66.0,1024.75,-1221.25,9
-518.0,-579.0,-204.25,598.75,1285.0,64.5,937.5,-1354.75,9
-433.25,-643.25,122.75,540.75,977.25,44.5,978.75,-1422.5,9
-268.0,-489.25,156.25,535.0,825.0,-29.0,984.75,-1522.5,9
-416.25,-500.0,262.25,440.0,658.5,-94.5,998.5,-1655.75,9
-320.5,-361.5,397.75,325.0,565.0,-200.25,1027.25,-1867.75,9
-177.25,-268.0,587.5,269.5,521.5,-208.5,1019.5,-1916.25,9
-96.5,-119.75,637.0,259.0,505.75,-253.25,1053.25,-1850.5,9
-52.5,-43.25,569.25,232.0,456.75,-328.0,930.0,-1731.0,9
-138.25,-31.0,416.5,130.75,331.75,-326.25,561.25,-1614.25,9
-119.75,-0.25,270.25,147.75,182.0,-303.5,459.75,-1544.5,9
-263.0,-11.0,188.5,124.5,-230.25,-277.25,723.25,-1523.75,9
-239.5,104.0,104.25,107.0,-682.25,-241.25,998.0,-1510.75,9
-269.5,104.5,117.75,55.0,-982.5,-260.0,1109.75,-1185.75,9
-177.0,143.75,126.25,-79.25,-1003.25,-215.0,1056.0,-941.75,9
-6.0,171.25,191.0,-143.0,-834.25,-163.25,1108.75,-1136.5,9
17.25,131.5,226.25,-38.5,-694.5,-196.0,1156.25,-1541.75,9
26.25,110.75,189.75,-81.5,-808.5,-177.0,1253.5,-1588.0,9
-13.25,91.0,159.25,-76.0,-887.5,-145.25,1286.75,-1472.5,9
-5.5,95.5,139.75,-67.0,-884.75,-197.0,1213.25,-1347.25,9
54.0,152.0,29.5,-144.5,-879.0,-269.5,1128.25,-1008.75,9
41.75,138.25,-188.25,-159.75,-746.5,-291.25,980.75,-567.25,9
179.25,89.75,-246.5,-228.5,-608.75,-200.75,911.75,69.0,9
101.0,63.0,-86.5,-192.5,-442.25,-150.5,713.25,670.0,9
-235.75,16.0,21.0,-188.5,-419.5,-56.75,609.75,520.25,9
-396.0,35.5,78.0,-216.5,-505.25,114.25,519.75,464.25,9
-236.25,48.25,70.5,-218.5,-606.0,151.25,437.5,385.25,9
-85.25,99.0,1.75,-222.5,-582.5,154.75,402.75,162.25,9
54.5,231.5,-56.0,-258.5,-432.0,205.0,335.75,237.25,9
221.25,318.75,-155.25,-277.0,-181.25,247.25,335.75,518.25,9
364.5,269.5,-205.25,-284.25,2.25,257.25,201.5,819.0,9
431.75,90.0,-213.25,-204.0,-3.0,297.0,52.25,1181.5,9
259.25,-96.25,-188.0,-173.25,-74.5,322.25,-27.5,1413.25,9
149.5,-277.0,-98.5,-196.25,-212.5,346.0,-115.25,1497.0,9
-10.25,-408.0,115.75,-188.0,-396.5,363.0,-156.25,1600.0,9
-259.75,-472.5,283.0,-234.5,-519.25,339.5,-175.75,1495.0,9
-302.25,-435.25,351.5,-226.75,-227.25,316.25,-93.5,1335.25,9
-75.75,-281.0,337.25,-207.5,186.75,312.25,62.75,1257.5,9
234.5,-98.25,244.0,-261.75,176.5,323.75,173.25,1088.75,9
582.5,-7.0,113.75,-310.75,261.75,328.25,209.5,875.75,9
845.25,146.75,-38.25,-307.0,297.5,340.75,202.25,562.0,9
876.25,515.0,-131.5,-240.5,206.5,331.25,163.75,377.75,9
882.75,713.25,-223.0,-181.25,136.75,313.0,51.25,411.75,9
726.25,645.75,-286.5,-215.5,236.0,312.25,-102.0,390.25,9
505.75,525.25,-299.25,-187.0,204.75,311.25,-284.25,261.75,9
431.75,399.75,-257.0,-139.25,-60.25,275.25,-438.5,47.75,9
343.0,361.0,-195.25,-138.5,-491.75,219.5,-468.0,-130.5,9
243.75,534.0,-168.0,-151.75,-1199.0,207.5,-485.5,-91.0,9
85.0,880.25,-102.75,-154.25,-1509.0,187.5,-553.5,-120.25,9
-162.5,1130.75,-106.0,-143.75,-1401.5,166.5,-594.5,-163.0,9
-294.25,1029.75,-141.5,-167.25,-1034.0,166.5,-591.5,-291.75,9
-473.5,629.75,-166.5,-129.0,-594.0,168.25,-523.75,-347.25,9
-609.5,-278.0,-186.25,-87.5,-759.0,194.5,-416.0,-197.25,9
-723.0,-967.0,-144.75,-29.0,-612.25,197.25,-334.0,-144.25,9
-1008.25,-1342.75,-137.5,9.5,-614.25,133.0,-346.75,182.0,9
-991.0,-1193.5,-80.25,-47.25,-827.25,86.25,-362.5,537.25,9
-1003.75,-1077.5,-42.75,-92.0,-684.0,56.5,-389.5,630.25,9
-1042.25,-1044.0,10.0,25.75,-591.5,75.0,-709.25,593.25,9
-727.0,-1055.5,82.25,74.0,-503.0,112.5,-1039.0,466.5,9
-69.25,-443.0,49.75,42.5,-40.0,128.0,-998.5,199.0,9
673.25,487.0,5.25,41.75,434.0,148.5,-644.0,-11.0,9
983.75,941.0,-116.5,-22.25,743.5,137.25,-389.25,-173.25,9
982.0,861.75,-142.5,97.25,1059.5,123.5,-499.5,-327.5,9
934.0,821.5,-126.75,80.75,914.0,64.75,-643.25,-217.5,9
957.0,566.25,-109.25,83.75,986.75,51.75,-551.25,-231.75,9
877.0,282.5,8.25,183.75,1418.5,60.75,-282.5,-212.0,9
777.5,112.75,136.5,180.5,1671.75,58.0,-62.5,-72.25,9
679.75,308.75,253.75,161.25,1635.75,65.0,235.0,150.75,9
358.75,757.75,275.25,116.5,1611.25,22.25,688.0,479.5,9
85.25,1012.75,297.25,157.25,1706.5,-2.0,693.75,651.75,9
-206.25,985.25,312.25,223.5,1664.25,-43.5,579.0,527.25,9
-300.5,948.0,321.5,227.0,1538.5,-15.75,481.25,271.0,9
-143.0,531.25,348.0,178.25,1441.5,60.5,440.0,-46.0,9
-175.5,-496.0,287.75,128.25,1384.0,128.75,415.0,-339.25,9
-248.25,-799.75,172.75,78.25,1172.25,220.5,342.0,-567.25,9
-294.0,-1206.25,70.0,86.75,978.0,240.75,256.5,-839.0,9
-107.0,-1227.75,-53.5,36.25,900.75,167.5,93.75,-880.25,9
-65.0,-976.75,-126.5,-22.5,926.25,60.25,-38.5,-1032.75,9
-392.25,-602.25,-185.25,-7.25,918.75,53.75,-405.25,-974.0,9
-687.0,-604.0,-199.75,-25.75,1013.0,101.5,-1352.75,-817.25,9
-840.5,-833.25,-201.75,-65.0,1203.0,44.0,-2280.5,-536.75,9
-930.75,-1096.25,-177.0,-97.75,1428.25,57.5,-2513.75,232.0,9
-1111.75,-605.75,-38.0,-158.75,967.0,60.75,-2549.0,1213.75,9
-1164.25,277.0,-83.5,-218.0,423.5,-50.0,-2548.25,1701.25,9
-1073.0,543.25,-142.0,-210.0,308.5,95.0,-2495.75,1566.5,9
-729.25,786.5,-95.25,-187.0,266.5,135.5,-2423.0,1160.0,9
180.25,983.75,-81.75,-148.75,174.25,131.75,-2293.75,896.5,9
1164.25,1206.5,-69.25,-195.75,250.25,243.5,-2134.25,954.75,9
1261.75,1522.5,-50.25,-311.0,-67.25,225.0,-2021.0,1305.0,9
1324.5,1657.0,-10.25,-333.0,-485.0,315.0,-1895.0,1431.75,9
1271.75,1055.5,61.5,-183.5,-375.25,413.75,-1766.75,1483.25,9
1167.0,-619.0,128.75,-61.25,-513.75,486.5,-1649.75,1343.0,9
1118.25,-2016.5,100.75,52.0,-397.5,499.75,-1472.0,914.5,9
190.75,-2046.75,83.5,94.25,-225.0,420.0,-1194.25,620.0,9
-837.5,-1713.25,-4.75,-1.0,-150.75,341.5,-1114.25,392.5,9
-816.25,-1032.5,-203.0,-16.5,-337.75,188.0,-970.0,197.75,9
-836.0,-197.5,-281.25,-80.0,-863.75,51.0,-296.75,85.0,9
-836.75,425.0,-236.5,-143.25,-1028.75,-57.75,435.5,275.25,9
-830.75,1147.25,-250.0,-174.75,-836.25,-139.75,1025.0,407.75,9
-501.5,1347.0,-255.0,-95.75,-794.75,-152.75,1440.5,474.25,9
418.75,959.75,-243.75,-39.75,-1002.0,-199.5,1619.0,712.5,9
693.75,950.0,-205.75,-41.25,-1130.25,-233.75,1765.25,748.75,9
946.25,378.25,-72.25,-24.0,-1343.25,-251.25,1894.5,788.75,9
625.75,-171.5,85.0,-136.25,-1617.25,-353.25,1885.5,906.5,9
-45.5,-560.0,220.75,-111.0,-1628.0,-473.0,1686.0,778.75,9
-110.25,-729.5,291.75,-121.75,-1735.25,-586.25,1341.75,589.0,9
180.25,-902.5,307.75,-211.25,-1746.0,-567.0,1032.5,399.75,9
241.25,-522.75,265.0,36.5,-1445.25,-315.5,834.25,385.25,9
340.5,246.0,290.25,219.5,-1498.0,152.5,698.0,445.75,9
809.75,419.25,296.5,172.75,-1515.75,463.75,607.25,303.5,9
800.5,552.0,154.75,165.75,-1596.0,354.25,573.25,163.5,9
703.25,794.0,134.0,422.0,-1638.0,16.5,512.75,-117.0,9
457.75,661.25,132.5,554.0,-1755.75,-875.5,309.0,-350.0,9
333.5,128.5,39.25,425.5,-2086.25,-1163.5,122.25,-472.5,9
-659.25,-440.75,-42.5,303.5,-2087.75,-185.25,44.25,-633.75,9
-1143.25,-495.0,-88.0,192.5,-2004.25,566.75,86.25,-703.75,9
-1731.75,-335.75,-56.75,300.5,-2001.5,681.75,149.0,-763.5,9
-2063.5,568.5,-19.0,261.25,-2164.75,780.75,225.25,-882.75,9
-2088.0,-73.75,-142.0,158.25,-2130.25,728.75,212.5,-978.75,9
-2236.25,-368.0,-263.25,194.75,-1957.5,837.0,71.0,-1037.75,9
-1551.25,504.0,-186.25,125.25,-1726.25,1202.5,-104.25,-1091.0,9
-320.25,1106.5,-196.0,-38.25,-1670.25,1298.0,-203.0,-1137.5,9
198.0,1261.5,-219.25,108.75,-1339.5,1436.0,-317.0,-1186.0,9
-128.25,792.5,-270.0,201.75,-976.25,1080.5,-428.5,-1135.25,9
201.75,-101.0,-178.75,135.25,-334.75,-586.5,-435.75,-987.0,9
851.75,-310.0,81.5,-4.75,-249.5,-751.75,-412.25,-750.5,9
1305.5,491.5,229.25,-91.5,-211.75,-825.0,-430.5,-637.5,9
1609.25,904.5,472.25,-33.25,-49.5,-894.5,-533.75,-527.0,9
1247.5,595.5,537.0,-84.5,150.5,-943.25,-678.5,-379.5,9
917.5,156.75,408.75,21.25,331.25,1029.25,-820.25,-440.25,9
-343.5,-638.75,216.0,-75.0,23.5,872.0,-929.25,-525.75,9
-785.0,-886.25,1.75,-190.5,-79.5,744.0,-1052.25,-522.5,9
-285.5,-532.5,-97.25,-145.75,17.25,419.25,-1149.5,-414.25,9
-424.25,-368.5,-132.0,-41.25,181.25,-118.25,-1261.0,-349.75,9
-362.75,438.75,-175.0,10.0,354.25,-183.5,-1361.75,-357.75,9
-609.25,769.75,-213.5,11.0,355.5,159.75,-1025.5,-351.0,9
-518.0,856.0,-262.5,-98.5,432.75,410.5,-583.5,-319.75,9
-115.75,931.5,-343.0,-130.25,819.25,130.75,-369.5,-346.75,9
88.25,-94.5,-270.5,44.0,1120.5,-181.5,-131.5,-377.75,9
324.75,-758.0,-189.5,-149.25,964.25,-418.0,-51.5,-435.0,9
242.25,-1132.75,-182.25,-185.75,957.75,-883.0,-303.25,-491.25,9
239.25,-1135.25,-153.25,-60.5,1021.5,-1179.75,-422.0,-400.5,9
359.5,-396.5,-109.5,-229.0,939.75,-1188.25,-428.25,-410.5,9
218.0,37.0,-32.25,-209.0,933.25,-1205.75,-428.25,-454.75,9
-226.0,-100.25,5.25,-218.75,1260.25,-1318.75,-434.75,-411.5,9
-745.75,157.75,-12.25,-282.0,1503.75,-1427.25,-415.5,-367.0,9
-928.5,382.5,-24.25,-197.0,1591.25,-1414.25,107.5,-248.75,9
-977.0,489.0,-21.0,-108.25,1614.5,-1318.25,1411.5,-140.75,9
-1029.25,85.75,-32.75,-14.0,875.75,-1297.0,1611.5,-78.25,9
-1124.25,-176.75,-83.75,11.25,1173.25,-1249.75,1615.25,-81.75,9
-996.75,261.5,-153.25,-64.75,1793.75,-1001.0,1646.5,-190.75,9
-134.75,254.25,-175.5,-115.75,1783.25,-910.0,1682.0,-195.0,9
594.5,-275.5,-175.25,-290.75,1870.0,-818.75,1707.75,-68.0,9
1004.25,-139.75,-144.75,-490.25,1885.5,-769.75,1741.0,86.25,9
1084.25,189.75,-58.75,-401.75,1989.25,-863.75,1762.0,241.25,9
1214.0,291.0,24.75,-156.0,1901.5,-813.25,1770.25,346.75,9
1344.75,318.75,144.75,83.5,1741.5,-566.0,1783.0,355.5,9
1511.0,569.0,235.5,20.5,1739.25,-387.0,1794.25,194.0,9
1669.0,995.5,307.25,32.0,1738.25,-432.75,1801.5,31.0,9
1661.75,798.75,301.75,11.0,1679.25,-511.25,1805.75,-68.5,9
614.0,-134.25,234.0,2.25,1846.25,-690.0,1805.0,-159.25,9
-255.75,-795.75,176.25,67.0,1782.25,-612.5,1799.25,-228.5,9
-323.25,-875.75,71.5,-267.25,1403.5,-438.25,1766.75,-266.25,9
-428.25,-712.0,-3.5,-571.25,591.75,-289.75,1796.0,-280.25,9
-594.75,-185.75,-68.5,-270.5,228.25,-152.25,1861.25,-255.75,9
-913.0,-117.5,-254.5,427.75,198.25,-5.0,1878.25,-218.75,9
-1242.0,-178.5,-334.5,702.25,-111.75,202.75,1918.0,-119.25,9
-618.0,13.75,-144.75,715.25,3.75,477.75,1937.75,12.25,9
687.75,169.0,0.25,393.25,270.25,835.0,1948.75,114.75,9
1222.0,-36.5,6.0,-53.75,314.5,1142.75,1846.75,70.25,9
1333.0,-470.25,-21.5,67.75,16.5,1338.75,1207.25,-45.0,9
1409.75,-872.0,1.75,35.5,-121.25,1404.0,696.75,-40.75,9
1314.0,-1054.5,111.0,-478.5,9.25,1482.0,201.0,-12.25,9
1167.25,-399.5,153.5,-939.75,80.75,1453.5,-374.75,-48.5,9
926.0,-163.25,77.25,-857.25,58.25,1309.5,-703.5,-90.5,9
672.5,148.75,-124.5,-423.5,-15.0,1235.5,-917.5,-13.75,9
647.75,741.0,-228.25,-537.0,-165.75,1176.5,-1050.75,218.5,9
70.5,860.5,17.0,-799.25,-137.75,1056.25,-1258.0,427.0,9
-553.5,813.25,210.25,-528.75,-22.0,901.25,-1427.75,583.25,9
-998.0,620.0,146.25,293.5,-110.25,787.75,-1542.75,854.0,9
-1281.0,92.75,83.75,853.75,-408.25,692.5,-1610.0,1209.75,9
-1310.0,-34.5,74.5,619.25,-442.75,732.0,-1744.25,1444.5,9
-1487.75,-648.75,-104.75,195.5,-126.75,768.75,-1912.25,1566.0,9
-1610.25,-882.0,-345.5,-57.75,-258.0,632.75,-2015.0,1751.5,9
-1671.0,-876.0,-329.5,-242.75,-10.5,466.0,-2070.0,2009.5,9
-1634.25,-522.5,-554.5,-503.75,124.75,427.0,-1993.75,2184.75,9
-1474.5,116.0,-720.25,-411.5,157.75,477.75,-1983.5,2255.0,9
-1417.75,130.5,-79.25,-141.75,-216.25,512.25,-1941.25,2381.25,9
-1441.75,49.75,802.5,-313.75,-535.5,599.25,-1914.0,2439.0,9
-1121.0,118.25,1092.0,-161.75,-150.25,661.5,-1914.5,2466.25,9
-269.25,163.5,1032.0,180.25,137.25,732.25,-1929.75,2494.25,9
411.75,128.5,712.25,40.5,733.25,813.75,-1942.0,2371.5,9
1043.75,65.5,331.5,-138.25,775.5,1043.75,-1928.5,527.25,9
1251.0,201.75,54.5,-370.5,662.0,1251.0,-1937.75,286.25,9
1490.75,406.75,-252.5,-588.5,735.0,1284.0,-1939.75,186.25,9
1769.0,459.75,-308.75,-423.75,619.75,1431.5,-1938.75,111.5,9
1986.75,303.25,-383.0,-135.5,567.25,1301.25,-1921.25,158.25,9
2205.0,341.25,-534.75,-73.5,-60.25,883.75,-1625.75,711.5,9
2288.75,433.5,-742.0,34.75,-343.5,564.75,-1243.0,779.25,9
1479.0,240.25,-828.5,-20.0,-167.25,334.75,-1276.75,526.5,9
471.0,129.5,-695.5,-120.5,-595.0,190.25,-1284.0,293.0,9
-244.0,99.5,-649.5,-99.25,-2135.0,116.5,-1212.0,310.75,9
-646.75,236.5,-661.0,-266.5,-2054.0,280.75,-1225.25,428.0,9
-838.25,243.25,-468.25,-173.25,-1760.0,428.75,-1022.0,236.75,9
-889.5,101.75,-224.5,-44.5,-1718.25,486.75,-690.25,-71.5,9
-715.25,1.0,-177.5,-98.25,-1572.75,536.75,-352.0,35.5,9
-632.5,-158.75,-170.0,-79.25,-1345.75,405.0,-257.0,185.25,9
-178.0,108.0,-106.25,216.25,-961.5,159.5,-357.25,514.5,9
-78.0,258.75,124.5,414.0,-270.25,-221.0,-291.5,939.0,9
-274.25,366.0,341.75,269.5,-23.5,-527.75,-196.5,853.5,9
-449.0,323.0,507.5,233.25,-41.25,-818.75,-36.5,994.5,9
-502.5,271.25,573.75,225.25,-206.5,-848.5,113.75,866.5,9
-282.0,348.0,329.5,270.0,-584.0,-802.5,206.25,461.75,9
-204.75,249.5,-204.0,321.5,-735.25,-760.75,458.0,40.25,9
-165.0,8.25,-517.0,291.0,-1100.75,-739.0,626.5,-524.75,9
-288.25,-386.25,-675.5,176.25,-1361.0,-755.5,605.5,-924.25,9
-335.5,-572.25,-713.75,247.0,-1474.75,-798.0,559.75,-1328.5,9
-206.5,-750.75,237.25,513.75,-1583.0,-827.75,584.25,-1630.0,9
-374.25,-835.5,402.5,545.75,-1489.0,-800.5,763.5,-1835.75,9
-700.25,-456.25,374.25,525.25,-1358.25,-789.0,835.5,-1963.5,9
-964.0,185.0,1084.75,531.5,-948.75,-790.0,798.25,-1943.0,9
-1156.75,123.0,1379.75,480.75,231.5,-823.5,737.75,-1793.75,9
-1197.5,-120.75,1467.25,478.0,703.75,-856.5,754.5,-1637.0,9
-1373.25,-367.25,1524.0,489.5,209.75,-896.5,717.5,-1406.0,9
-1530.0,-834.0,1501.5,488.25,-304.5,-960.5,612.5,-1704.25,9
-1599.25,-952.5,1234.5,444.0,-510.25,-955.5,466.25,-2463.75,9
-1525.0,-968.5,966.75,393.25,-482.0,-766.0,364.0,-2724.5,9
-1002.0,-751.0,806.25,413.5,-489.5,-566.5,193.75,-2643.0,9
-528.75,-679.75,508.25,362.5,-245.75,-308.0,-33.0,-2627.0,9
-406.25,-931.5,163.5,267.5,220.0,4.0,-162.75,-2540.5,9
-284.75,-822.25,-385.0,279.0,778.5,215.0,-332.75,-2454.0,9
219.25,-418.0,-1041.5,376.25,1194.5,353.0,-461.25,-2381.25,9
595.75,86.75,-1203.25,489.25,1568.5,464.25,-521.75,-2335.75,9
569.0,160.0,-918.5,584.25,1409.75,549.75,-515.75,-2283.25,9
600.25,217.0,-222.75,362.0,427.5,641.25,-453.5,-2158.5,9
517.5,316.0,-139.5,-121.0,653.25,660.75,-441.25,-1497.75,9
340.75,143.75,-277.5,-175.75,942.0,672.75,-421.5,-607.75,9
184.25,-45.75,-529.5,-301.5,1012.75,714.5,-447.75,36.5,9
186.75,-162.5,-281.0,-776.75,879.5,724.75,-536.0,524.5,9
442.0,91.25,-355.25,-676.0,4.25,740.5,-572.5,240.0,9
738.75,122.25,-947.75,18.75,-372.0,783.75,-562.25,134.75,9
875.25,-41.25,-976.25,350.75,-367.75,1046.25,-607.0,247.75,9
837.0,-20.0,-733.0,334.0,-470.5,1284.75,-661.75,2.75,9
569.25,-14.25,-356.75,253.0,-636.0,1206.0,-558.75,-587.5,9
399.0,108.5,771.5,51.5,-621.25,1163.0,-445.5,-520.5,9
329.0,14.25,854.0,181.5,0.25,1184.0,-627.25,76.0,9
-173.5,-103.0,-84.0,202.25,1019.5,1027.75,-734.5,495.75,9
-847.25,-46.5,-455.0,55.5,1075.25,853.0,-772.25,1116.5,9
-980.75,72.75,160.75,158.0,815.5,647.0,-864.25,1452.0,9
-809.5,98.5,461.75,44.0,709.5,560.75,-779.25,1810.5,9
-874.5,165.25,386.0,46.0,542.0,447.5,-793.75,1850.75,9
-797.0,216.0,840.0,-67.0,473.0,358.75,-732.0,1992.75,9
-359.5,333.0,758.25,-88.0,96.75,243.25,-692.5,2247.5,9
645.75,523.75,573.5,-152.0,155.25,68.75,-682.5,2385.0,9
1788.5,601.5,-26.0,-247.5,288.0,-81.5,-669.0,2450.5,9
2199.75,573.25,-315.25,-201.5,-220.75,-199.5,-767.25,2444.25,9
2179.75,503.25,14.0,-258.75,-702.0,-182.25,-778.25,2481.25,9
2113.5,397.75,-227.75,-229.0,-1050.25,-110.0,-670.75,2503.0,9
1633.75,8.25,-414.75,-242.5,-933.0,-138.5,-639.5,2511.5,9
813.25,-310.5,-379.5,-199.0,-333.5,-236.5,-694.25,2512.25,9
447.5,-149.5,-185.75,-226.25,258.75,-267.25,-530.75,2511.25,9
313.75,94.75,-315.25,-283.0,402.75,-280.25,-358.75,2515.25,9
295.0,327.25,-328.25,-342.75,366.0,-287.25,-276.5,1980.5,9
424.25,533.25,-260.0,-430.0,474.75,-281.5,-323.5,1440.0,9
665.0,546.75,-489.5,-457.25,337.75,-253.0,-386.0,832.75,9
599.75,472.25,-634.75,-430.0,126.75,-260.75,-288.25,375.5,9
418.0,374.25,-558.75,-372.0,-242.0,-295.25,147.25,175.5,9
26.75,323.75,-356.0,-378.5,-438.25,-252.0,643.75,304.25,9
-419.0,127.25,-439.0,-373.75,-431.5,-255.25,757.25,430.25,9
-804.75,-203.0,-945.25,-309.75,-529.5,-265.0,773.75,277.5,9
-1080.75,-389.25,-958.5,-265.25,-553.5,-284.0,734.25,-84.0,9
-1243.0,-414.0,-329.0,-250.5,-870.0,-276.75,714.0,-343.25,9
-1135.25,-280.25,-30.25,-230.75,-1019.5,-270.25,710.25,-275.25,9
-1023.0,-182.25,411.5,-225.75,-1148.25,-307.5,722.0,-242.75,9
-1046.25,-265.75,498.0,-218.25,-1436.25,-327.0,718.0,-313.75,9
-968.75,-279.75,721.5,-221.5,-1645.5,-285.5,722.5,-492.25,9
-892.5,-179.0,870.5,-212.25,-1520.75,-262.5,744.75,-721.5,9
-718.25,76.0,803.75,-196.25,-1401.5,-239.25,756.25,-775.25,9
-557.25,287.75,583.75,-187.5,-1195.75,-179.75,847.5,-889.5,9
-528.5,342.0,38.25,-154.75,-1038.25,-160.75,846.25,-1064.0,9
-427.5,452.25,-539.25,-141.0,-914.25,-159.5,864.5,-1232.25,9
-455.5,373.25,-938.0,-143.75,-692.25,-224.0,887.0,-1506.75,9
-561.25,296.5,-797.0,-146.0,-515.75,-261.0,879.0,-1374.0,9
-536.25,249.5,-768.5,-113.25,-112.5,-307.25,909.0,-1139.25,9
-528.0,12.75,-840.0,-74.75,-76.0,-327.25,901.5,-1016.5,9
-560.5,-138.0,-919.75,-56.25,-98.0,-312.5,851.75,-780.75,9
-394.75,-102.0,-380.0,-12.0,-150.0,-356.25,737.25,-358.25,9
-153.5,-24.0,393.75,19.25,-478.5,-297.75,610.75,91.25,9
-65.75,-162.5,538.5,53.75,-681.75,-232.25,454.0,206.25,9
-23.5,-210.75,297.75,70.25,-605.25,-235.0,270.75,21.25,9
22.25,-70.25,300.0,35.25,-319.25,-203.25,172.5,-267.5,9
110.5,149.5,-651.25,-3.0,-360.5,-167.0,128.5,-450.0,9
97.0,330.5,-1078.25,29.25,35.5,-138.5,90.25,-507.75,9
19.25,410.75,-1025.5,92.25,348.0,-110.25,118.0,-697.5,9
38.0,446.75,353.5,76.75,52.5,-87.75,228.25,-882.0,9
55.5,178.75,1010.75,47.25,-273.5,-48.25,333.0,-901.75,9
147.75,-89.75,1013.25,20.75,-512.5,-7.25,381.75,-991.25,9
131.75,-329.75,1052.5,-5.5,-796.25,4.25,450.75,-1019.25,9
29.25,-610.5,1083.0,15.5,-1125.25,-1.0,513.25,-885.75,9
59.25,-430.25,713.0,68.25,-1407.0,23.0,520.75,-553.75,9
63.5,-84.75,300.75,81.0,-1463.5,40.0,484.5,-324.75,9
114.5,149.5,-151.25,87.0,-752.75,49.25,391.0,-129.75,9
80.25,385.75,-341.25,101.5,-67.0,42.25,273.75,105.5,9
18.25,314.75,-157.25,84.5,-54.75,67.5,95.25,57.75,9
-15.0,370.25,-1058.0,40.25,-117.75,82.75,-64.75,-21.75,9
-126.75,376.75,-968.5,-4.0,11.0,92.75,-101.75,-52.5,9
-120.5,335.0,-691.5,3.0,379.5,124.5,-113.75,12.75,9
-138.25,298.0,554.5,18.0,274.0,132.0,-78.25,58.75,9
-93.5,115.0,1145.25,36.25,175.5,125.0,-12.25,171.75,9
-95.75,51.75,1221.0,21.75,149.75,111.75,-7.5,254.5,9
-136.5,22.75,1260.25,-3.0,121.0,79.0,-26.25,261.5,9
-105.0,49.0,1243.75,-20.0,191.5,48.0,-3.75,350.25,9
-150.25,62.25,1126.0,-37.25,460.25,54.5,23.75,169.75,9
-127.5,97.5,472.75,-36.75,486.0,45.75,-20.0,136.25,9
-58.5,101.75,373.25,-30.0,409.25,48.0,-64.25,319.75,9
-22.25,87.5,56.5,17.0,641.25,67.75,-79.75,534.0,9
78.75,34.0,-153.0,34.75,865.5,66.5,-121.5,820.25,9
158.5,-34.0,-309.0,45.75,992.25,80.0,-180.0,1147.5,9
200.75,-117.0,-321.5,54.75,970.75,81.75,-232.75,1413.0,9
225.75,-173.0,-359.25,55.0,1003.0,81.5,-255.25,1418.0,9
167.5,-162.0,-957.5,85.5,1153.25,111.25,-249.25,1355.25,9
89.25,-183.0,-822.25,99.0,1432.75,120.5,-251.75,1184.5,9
93.0,-171.5,-711.75,59.25,1823.25,129.5,-266.0,923.75,9
35.0,-129.75,-411.5,-3.5,2202.75,139.0,-200.0,809.5,9
-110.0,-81.5,322.0,-32.75,2689.75,129.0,-121.25,615.0,9
-31.0,-104.5,463.5,-79.5,2813.0,142.0,-10.0,438.75,9
0.5,-120.0,331.75,-44.0,2286.0,145.25,117.75,511.5,9
53.75,-82.5,519.25,55.75,1520.0,153.5,181.75,670.0,9
130.75,-51.0,531.25,41.0,1002.5,153.25,315.0,838.5,9
135.0,-56.5,193.5,33.75,474.5,139.0,452.75,656.0,9
252.5,-41.5,-183.5,89.25,859.75,92.25,540.25,365.25,9
330.5,-41.75,-541.25,36.75,1818.25,30.0,553.0,410.75,9
444.0,-99.25,-505.0,-78.5,1388.75,-3.75,498.75,220.25,9
501.75,-104.25,-293.5,-36.0,728.5,7.75,441.0,-10.25,9
459.25,-78.0,-61.75,91.5,1376.0,61.5,425.75,62.0,9
221.5,-27.5,757.25,93.75,1934.75,76.0,386.75,50.0,9
11.25,-59.75,1011.25,56.75,1576.0,36.0,256.0,66.5,9
-136.5,-109.75,968.5,49.5,984.5,25.0,298.75,59.5,9
-318.5,-129.75,796.25,98.75,646.5,61.25,493.0,-20.25,9
-384.5,-171.25,149.25,111.0,343.0,91.25,618.0,44.0,9
-412.25,-158.75,427.75,60.0,411.0,100.5,787.25,242.5,9
-322.0,-184.5,499.25,9.25,737.0,71.0,806.25,349.75,9
-187.25,-218.5,-987.0,-64.25,356.5,58.5,736.5,72.25,9
-72.5,-208.0,-951.0,-36.25,-30.0,49.0,756.25,-238.75,9
52.5,-194.5,-888.0,-28.0,100.25,15.5,776.0,-450.25,9
149.5,-167.25,-878.75,-1.75,-354.5,25.5,797.0,-568.25,9
169.5,-145.0,-923.25,17.5,-618.5,19.75,754.75,-421.25,9
146.0,-154.0,-988.75,-8.5,-825.0,25.0,736.25,-267.25,9
136.5,-150.25,-900.0,-52.25,-1029.25,74.75,744.25,-269.0,9
111.75,-94.5,-646.0,-111.25,-1193.0,73.25,756.25,-384.0,9
131.25,-47.75,52.75,-77.75,-1304.5,81.75,771.75,-575.5,9
137.0,-25.0,838.25,-42.75,-1141.0,90.25,740.0,-629.0,9
59.75,-45.25,904.5,-7.75,-1158.5,93.75,671.0,-687.0,9
28.0,-69.0,915.0,-3.5,-1050.5,117.5,615.75,-869.5,9
39.75,-38.75,892.0,70.75,-982.75,89.25,599.75,-737.75,9
-96.5,-25.75,853.75,236.5,-873.0,68.5,535.5,-505.5,9
-132.75,22.0,140.0,156.0,-800.75,43.0,506.75,-451.75,9
-164.75,77.25,-530.25,57.25,-528.75,0.0,478.75,-473.75,9
-250.0,93.25,-383.5,18.5,-588.0,-26.75,422.75,-547.25,9
-235.25,110.75,-253.25,-64.0,-713.5,-41.75,394.75,-550.75,9
-287.5,110.0,-132.75,-92.25,-730.0,-25.25,316.5,-420.0,9
-266.0,91.0,160.0,-121.0,-680.5,-28.5,230.5,-398.75,9
-298.5,83.75,397.5,-91.5,-595.75,-59.75,154.75,-576.0,9
-377.25,74.25,511.5,-62.75,-895.0,-64.0,55.0,-618.25,9
-298.0,20.75,200.25,-20.5,-522.0,-77.0,-26.5,-642.75,9
-73.5,76.25,-36.25,38.0,-485.25,-102.25,-48.5,-686.0,9
55.5,190.25,78.25,31.25,-208.25,-148.0,-77.25,-622.75,9
253.75,169.5,509.75,5.5,399.25,-232.0,-64.75,-516.25,9
636.25,216.5,830.0,-303.5,488.75,-560.0,213.5,-214.0,9
1145.5,602.0,1158.75,-712.5,26.25,-835.75,553.5,-401.25,9
1203.0,798.0,980.5,-666.25,-122.75,-733.25,468.5,-704.25,9
925.0,710.75,489.25,-582.5,-320.5,-551.75,269.25,-526.75,9
788.0,674.75,390.0,-647.75,-882.5,-505.5,152.5,-195.75,9
562.5,684.75,6.75,-464.25,-839.5,-168.5,-63.25,-77.0,9
209.5,592.25,-329.25,-352.25,-494.75,5.25,-313.0,-59.0,9
0.75,545.5,-702.5,-201.75,919.5,283.25,-650.0,141.25,9
-266.75,289.0,-892.5,-191.75,1426.5,398.5,-793.5,473.25,9
-332.25,149.0,-899.5,-25.75,1273.5,457.75,-747.25,410.5,9
-473.25,-49.0,-781.75,183.75,1010.0,497.25,-710.25,162.75,9
-394.5,-214.75,-275.75,262.5,634.0,468.0,-679.25,-89.5,9
-416.75,-303.25,49.75,332.25,616.75,454.5,-574.5,-126.0,9
-401.5,-299.5,-150.0,280.75,644.75,364.0,-372.25,-306.75,9
-342.5,-280.25,-45.25,325.5,1252.75,338.5,-290.0,-407.5,9
-331.25,-381.25,-70.0,296.0,1661.25,277.75,-228.0,-292.75,9
-136.75,-469.5,-469.25,273.0,1977.25,340.25,-204.25,-239.5,9
-73.5,-591.25,-620.0,455.25,1780.5,388.5,-64.25,-824.75,9
-953.25,-774.25,-699.25,727.25,654.0,350.0,34.25,-1135.25,9
-1410.0,-847.25,-392.25,635.5,-402.75,54.0,-9.25,-829.0,9
-1326.5,-751.0,-576.0,568.0,-1423.5,-335.0,-65.0,-790.0,9
-1676.75,-678.25,-400.75,593.5,-1872.75,-386.0,-155.5,-536.75,9
-1652.25,-513.0,-219.0,488.75,-1780.75,-411.75,-217.75,-249.0,9
-860.75,-336.25,-146.0,490.0,-1679.25,-258.25,-148.25,-245.25,9
-439.5,-331.75,103.0,352.0,-1465.0,-207.5,2.75,-41.75,9
280.25,-150.0,264.25,226.5,-1647.0,-151.5,69.5,-61.0,9
564.5,-110.75,540.75,100.0,-1139.75,-86.5,25.75,440.5,9
1021.25,-44.75,344.5,-1.75,-3.5,-43.25,-47.0,574.75,9
1089.5,-143.0,303.5,21.75,1026.75,39.75,-46.5,312.0,9
914.0,-141.0,167.25,-75.25,1378.25,69.5,48.25,197.5,9
694.5,-0.75,262.75,-90.5,1028.25,185.25,143.75,370.0,9
416.5,65.25,447.5,-28.0,489.75,261.0,180.75,358.75,9
170.0,110.75,528.5,-15.25,586.25,319.25,184.25,183.75,9
-341.0,76.25,546.25,-28.5,700.25,309.5,172.0,352.25,9
-498.25,-1.75,468.5,-16.75,1709.5,242.25,163.25,418.0,9
-555.75,-47.75,447.75,-23.25,2019.25,173.75,251.0,389.25,9
-648.75,-7.25,409.25,32.0,2100.5,176.25,297.5,374.0,9
-561.5,-13.75,400.5,41.5,2096.25,172.75,302.5,319.75,9
-300.25,2.25,284.0,-20.0,2037.75,98.25,305.0,705.75,9
-152.75,31.0,461.5,-91.25,2004.25,46.25,282.25,858.25,9
6.25,49.5,358.0,-78.25,1951.75,-0.75,304.25,578.75,9
21.0,105.75,-96.0,-95.5,1980.25,40.0,235.25,652.75,9
7.75,164.0,-383.25,-99.75,2085.5,119.25,114.25,605.5,9
-29.75,190.25,-535.25,72.5,2028.75,181.0,-66.25,721.75,9
-124.25,204.25,-440.5,118.25,1914.5,242.25,-233.25,765.5,9
-105.5,195.5,-225.75,94.0,2009.5,281.0,-300.0,760.75,9
-98.5,174.25,-92.75,30.25,2226.0,255.0,-397.5,1043.25,9
-92.75,178.5,33.75,-1.5,1850.0,175.25,-465.75,1172.25,9
-100.5,182.0,9.75,12.0,1569.0,133.5,-493.0,1230.25,9
-36.25,181.5,-69.0,-1.5,1416.0,148.25,-431.5,1282.0,9
7.0,141.75,35.25,-116.0,1134.75,179.5,-181.75,1352.5,9
14.5,31.75,-41.5,-331.25,389.5,179.0,164.75,1343.75,9
-44.75,-84.25,-198.75,-426.0,102.75,110.25,328.25,1119.75,9
15.25,-74.25,-169.75,-401.0,92.0,97.75,250.0,1066.0,9
119.25,-35.25,-105.25,-456.0,-276.0,166.25,174.75,1102.0,9
128.25,-66.5,-207.25,-523.5,-509.5,257.0,127.25,907.75,9
167.75,-78.25,-315.75,-405.75,-971.25,238.25,106.25,820.75,9
108.25,-96.75,-261.5,-260.5,-1421.5,100.25,48.25,925.0,9
22.0,-75.25,-193.25,-262.5,-1846.75,-19.75,-29.25,1050.75,9
-10.5,-71.75,-95.75,-327.75,-1844.5,-135.75,-142.0,830.75,9
30.0,-83.5,41.0,-281.5,-2039.5,-270.0,-269.25,248.25,9
52.25,4.25,243.25,-11.0,-2146.0,-352.25,-299.0,366.25,9
62.25,60.5,419.0,170.75,-2193.25,-430.0,-379.75,844.0,9
97.75,79.5,382.0,198.5,-2130.75,-538.5,-478.25,907.75,9
119.75,94.5,237.75,170.0,-1602.25,-635.25,-457.25,551.25,9
124.5,113.0,172.75,145.75,-1927.75,-671.0,-453.5,224.25,9
168.0,137.25,171.5,258.0,-1826.25,-547.0,-511.5,-252.25,9
232.5,146.25,194.75,156.25,-1686.0,-460.5,-569.75,-669.75,9
172.5,122.5,185.75,90.5,-603.25,-524.0,-639.5,-859.25,9
95.75,100.25,34.0,50.5,176.5,-705.0,-698.5,-643.5,9
-49.0,71.0,-179.25,-70.5,-117.75,-889.25,-761.25,-315.25,9
-106.0,13.75,-180.0,-158.75,-1466.0,-942.25,-889.75,-439.0,9
-38.75,5.75,340.5,-228.25,-1298.75,-939.25,-1023.75,-560.75,9
73.75,11.75,696.25,-54.25,-912.75,-906.25,-1123.5,-298.75,9
151.75,9.5,453.75,288.0,-1170.25,-790.5,-1132.0,-235.75,9
207.5,11.5,355.5,543.5,-1378.75,-584.25,-1155.0,-419.25,9
332.0,15.75,287.75,436.0,-844.0,-409.5,-1099.5,-594.25,9
525.0,32.5,110.25,399.5,-533.0,-266.75,-1061.25,-907.75,9
594.75,32.25,-139.25,424.5,54.0,-124.25,-1055.75,-965.25,9
385.25,33.25,-671.0,11.75,429.75,-13.5,-962.0,-851.0,9
244.0,48.5,-947.5,-504.0,380.75,60.25,-899.0,-757.5,9
-21.25,43.5,-976.5,-871.5,172.75,90.25,-804.0,-685.5,9
-272.0,34.25,-949.25,-1106.0,-33.75,104.5,-773.25,-670.25,9
-22.0,46.5,-1013.0,-1114.75,-6.25,224.25,-840.5,-732.5,9
294.0,31.25,-977.75,-1088.75,20.0,558.5,-761.75,-783.75,9
343.0,30.25,-969.75,-1101.25,152.5,999.5,-598.0,-757.75,9
376.75,25.5,-729.25,-780.5,216.75,951.5,-416.25,-715.5,9
289.0,25.0,-691.5,-581.0,235.25,953.25,-229.0,-554.25,9
212.25,55.75,-483.25,-235.5,234.0,1008.75,-167.75,-371.5,9
159.0,71.75,-146.25,121.25,378.5,1051.5,-214.25,-282.5,9
149.75,85.25,-6.75,228.25,622.5,348.5,-204.75,-289.75,9
172.5,105.5,-82.0,350.0,671.75,-574.75,-183.25,-216.75,9
145.25,117.25,-39.25,495.0,-135.5,-853.25,-155.0,-224.25,9
123.75,110.25,167.0,633.25,-577.75,-806.75,-78.5,-203.0,9
128.25,123.75,296.75,451.0,-992.5,-817.0,3.75,-2.25,9
254.0,133.0,337.75,344.5,-1130.0,-852.25,60.0,4.0,9
306.0,94.5,396.25,172.75,-813.75,-646.5,24.5,-62.75,9
346.25,58.5,427.75,-145.5,-769.0,-289.0,-13.75,-183.0,9
363.0,37.5,380.25,-409.25,-722.25,50.0,122.25,-224.75,9
363.25,27.5,546.5,-885.75,-713.5,271.75,329.5,170.25,9
360.0,50.5,821.25,-1291.75,-795.25,486.75,463.5,461.0,9
334.0,95.75,785.75,-1413.25,-658.25,610.5,497.0,555.5,9
368.5,42.0,799.0,-1253.0,-242.0,757.25,530.75,497.0,9
354.0,49.25,920.75,-1207.0,-382.25,793.5,564.25,318.75,9
339.25,231.5,926.0,-1157.0,-890.0,682.0,434.25,230.0,9
309.25,442.0,-79.5,-520.0,-1071.75,535.0,284.75,-45.5,9
241.75,490.75,-612.75,169.5,-539.75,687.75,174.5,-527.0,9
97.25,-123.25,-579.75,1024.25,-33.0,1173.25,-0.25,-930.25,9
-57.5,-571.0,-550.75,1316.75,18.75,1043.5,-14.5,-1081.5,9
-61.75,-420.75,-666.75,1159.75,132.25,912.75,49.5,-1280.5,9
-85.75,-525.5,-493.75,1190.5,199.5,884.75,125.0,-1291.25,9
-116.0,-423.25,-469.25,1028.0,-157.5,615.0,336.25,-1087.5,9
-137.5,-353.25,-414.5,1220.0,52.0,556.75,559.75,-1007.0,9
-222.5,-335.0,-434.75,1194.75,-231.25,379.75,684.0,-934.25,9
-290.25,-265.0,-393.25,815.5,-205.0,261.75,698.0,-947.0,9
-409.5,-281.5,-58.75,794.0,-376.75,155.75,858.0,-876.5,9
-499.75,-182.25,105.5,697.75,-361.0,24.5,1020.0,-676.5,9
-443.25,-184.25,412.0,844.25,-288.0,-75.75,1000.5,-361.0,9
-370.75,-139.75,460.25,934.75,-339.25,-195.25,905.25,56.25,9
-341.75,-129.25,456.5,1053.75,-283.5,-254.0,839.25,235.25,9
-279.5,-75.75,437.25,963.5,-414.5,-351.75,767.0,260.25,9
-202.5,-15.5,370.0,850.0,-514.0,-420.75,632.25,436.25,9
-90.25,41.75,336.0,615.25,-547.0,-487.75,564.25,604.75,9
59.25,93.25,270.25,231.25,-309.75,-512.75,470.0,639.75,9
109.25,49.5,143.75,-219.25,152.75,-475.25,430.75,492.75,9
-45.25,-14.0,-4.0,-440.0,539.5,-465.0,367.75,343.75,9
-38.25,6.25,-139.0,-938.0,331.0,-542.0,211.5,244.25,9
123.75,149.75,-87.25,-1328.75,330.75,-615.75,172.75,59.5,9
183.75,251.5,252.0,-1422.25,325.0,-634.0,159.75,53.25,9
319.25,450.5,345.0,-1671.5,240.25,-690.25,176.5,94.5,9
372.75,528.25,215.0,-1614.0,563.25,-715.5,266.5,103.0,9
382.25,558.75,-465.5,-1328.25,954.0,-841.5,256.75,153.5,9
386.75,607.0,-917.5,-927.25,876.0,-925.75,81.5,377.5,9
347.0,608.0,-329.0,-499.25,-202.0,-955.75,-37.0,986.5,9
318.5,676.75,295.25,-337.25,-1091.0,-1032.0,-203.5,1711.5,9
274.75,624.25,467.75,-413.25,-1139.0,-868.0,-383.0,2285.25,9
362.0,556.25,319.5,-409.0,-663.75,-575.5,-502.75,2208.0,9
284.75,466.25,92.25,-574.75,-519.75,-351.25,-533.75,1798.0,9
10.0,290.5,133.0,-740.75,-572.0,-300.5,-227.25,1336.5,9
-258.5,149.25,-387.75,-394.5,-193.0,-300.0,-13.0,1034.75,9
-654.75,-3.5,-691.75,-74.5,143.75,-265.5,-162.25,911.25,9
-1116.0,-130.75,-495.25,75.0,328.5,-243.5,-254.25,802.75,9
-1195.25,-147.0,90.25,293.0,98.25,-264.25,-234.75,675.0,9
-1154.75,-133.75,437.75,414.25,69.0,-236.5,-270.5,560.0,9
-1007.75,-135.0,560.5,458.5,592.0,-21.75,-350.75,438.0,9
-775.0,-165.5,495.75,510.5,880.75,260.5,-463.0,176.75,9
-616.75,-219.25,532.25,609.5,844.5,419.5,-533.0,-132.25,9
-589.25,-242.25,396.5,669.25,1099.0,533.75,-572.75,-290.25,9
-520.0,-222.75,231.25,647.0,1426.25,700.75,-610.25,-790.75,9
-373.25,-270.5,99.0,727.5,1830.0,940.75,-609.5,-1215.75,9
-191.25,-399.0,-309.75,726.25,2400.0,1069.5,-422.25,-1371.75,9
-17.25,-409.5,-717.5,488.25,2595.0,1100.75,-141.0,-1412.75,9
111.75,-474.5,-899.5,334.75,2557.25,1188.0,-120.0,-1171.0,9
203.5,-564.0,-299.0,286.0,2555.75,1261.25,160.75,-907.0,9
194.5,-694.75,269.5,199.5,2552.25,1498.0,538.5,-773.25,9
35.0,-727.5,487.5,284.25,2531.25,1565.0,294.75,-827.5,9
-218.25,-661.25,797.25,509.5,2501.0,1386.5,48.75,-1080.0,9
-427.0,-644.75,1005.5,553.0,2477.0,1226.75,213.0,-1181.0,9
-415.0,-585.5,44.75,538.5,2446.75,1094.5,493.5,-1157.0,9
-376.5,-535.75,-576.75,400.5,2442.25,1108.0,722.0,-1553.0,9
-363.5,-504.5,-631.25,274.0,2420.75,1189.25,1057.25,-1997.0,9
-376.5,-448.25,-289.0,344.0,2372.25,1086.75,1161.5,-2040.75,9
-386.0,-419.25,1207.75,305.0,2325.0,860.0,823.25,-1866.25,9
-372.25,-319.75,1093.0,419.75,2234.5,709.75,842.0,-1635.5,9
-395.75,-215.75,992.25,484.0,2058.0,576.25,782.5,-1215.75,9
-399.0,-113.0,888.75,155.0,1452.25,459.5,546.75,-1029.75,9
-292.25,-37.75,828.5,109.75,932.0,409.0,660.0,-771.0,9
-146.0,14.0,-333.5,-8.5,921.75,373.75,833.0,-611.75,9
-76.75,44.75,-1250.5,-149.5,925.5,348.25,884.75,-518.25,9
-65.0,74.75,-1303.0,-147.0,841.25,368.25,874.0,-410.0,9
-77.0,139.5,-1331.25,-188.5,590.5,455.25,801.25,-186.0,9
-12.5,174.25,-921.5,-147.5,286.5,345.75,555.5,-176.75,9
131.5,203.0,-471.5,-187.5,-8.75,23.0,513.5,-559.0,9
258.5,212.0,-593.0,-175.0,-319.5,-195.75,603.75,-660.5,9
304.0,227.75,-607.75,-182.75,-776.75,-360.25,542.0,-776.0,9
361.25,220.75,-540.0,-269.0,-957.0,-441.0,348.5,-726.5,9
431.0,217.5,-868.75,-367.5,-928.0,-520.75,276.5,-628.0,9
439.5,209.25,-962.75,-385.5,-1004.75,-607.75,370.25,-605.75,9
393.75,227.75,-759.0,-148.75,-1122.5,-613.75,305.75,-424.75,9
394.25,248.0,85.25,145.75,-1093.75,-527.75,453.0,-247.75,9
373.25,238.5,749.75,287.5,-1109.5,-341.5,621.25,166.5,9
278.5,219.75,753.75,269.5,-1025.5,-191.0,507.25,619.25,9
340.5,196.75,626.0,156.25,-951.5,-127.5,235.5,1044.5,9
400.5,181.0,125.75,166.5,-943.25,-39.75,-10.75,1315.0,9
414.0,149.25,58.25,336.5,-1003.75,145.5,-21.75,1343.75,9
401.0,150.5,-94.5,329.5,-1139.0,265.5,71.25,1378.25,9
253.5,151.5,-307.5,-128.25,-1297.0,116.0,66.5,1542.75,9
136.25,156.25,-545.0,-493.25,-1573.0,-110.25,-62.0,1513.5,9
54.0,159.5,-664.25,-810.75,-1718.0,-350.5,-78.75,1339.0,9
-97.0,146.0,-680.0,-1031.5,-1608.25,-501.25,28.0,1272.75,9
-301.5,141.0,-599.25,-1088.25,-1449.75,-437.0,74.0,1278.75,9
-543.75,127.0,-600.5,-1124.75,-1146.5,-428.25,-178.0,1296.75,9
-659.5,126.75,-634.75,-842.75,-1046.5,-343.75,-355.25,1279.0,9
-611.0,140.75,-534.5,-704.5,-1065.5,-300.75,-453.5,1231.0,9
-462.5,145.25,-538.75,-383.0,-969.0,-314.25,-661.25,1192.25,9
-215.75,145.0,-707.75,123.25,-1052.25,-307.75,-601.5,1146.75,9
-97.5,111.0,-575.5,241.0,-1242.0,-370.0,-483.0,1064.0,9
141.75,96.0,-167.0,199.0,-1351.0,-378.25,-210.0,984.0,9
599.5,130.75,-60.25,163.5,-1332.5,-493.25,-35.75,958.0,9
853.5,144.75,62.25,199.0,-1292.25,-599.75,125.75,858.25,9
850.0,138.0,-313.25,210.25,-1240.25,-625.25,246.5,742.75,9
624.5,122.0,-862.25,129.0,-1238.5,-596.0,164.5,608.0,9
412.0,100.75,-476.75,75.25,-1128.5,-411.0,-4.25,492.5,9
358.25,97.5,150.75,51.5,-745.25,-266.75,-210.0,468.5,9
266.25,103.25,475.75,154.5,-503.5,-202.25,-214.75,435.5,9
353.0,64.75,632.75,181.0,-600.0,-251.5,-71.75,343.25,9
337.5,37.25,651.5,13.5,-788.5,-314.75,234.75,299.5,9
222.5,14.5,555.0,-219.75,-886.0,-305.0,504.5,229.0,9
148.5,-27.25,165.5,-334.0,-831.25,-334.25,533.25,157.5,9
32.75,-44.75,-333.75,-202.25,-769.75,-272.5,747.75,100.75,9
100.0,-56.75,-458.0,-33.25,-638.5,-192.25,1006.0,-20.5,9
83.0,-75.75,-687.25,-95.25,-548.0,-167.5,996.0,-111.75,9
84.5,-68.75,-823.75,-204.5,-408.25,-143.0,835.5,-171.0,9
88.0,-51.0,-718.5,-153.25,-383.75,-143.75,729.5,-230.75,9
32.0,-49.25,-590.5,-115.0,-595.75,-191.75,513.25,-337.5,9
-10.5,-35.5,-387.5,-37.0,-800.0,-180.5,454.25,-347.5,9
-119.0,-35.5,-224.5,80.25,-748.0,-151.5,287.75,-288.25,9
-163.5,-42.75,30.75,114.5,-599.75,-123.5,-750.25,-233.75,9
-255.75,-37.25,-148.5,27.0,-238.25,-151.25,-1527.75,-111.75,9
-285.0,-36.5,-300.25,-1.25,-76.75,-271.5,-1490.5,-73.5,9
-264.25,-23.0,-112.0,1.5,-69.75,-261.5,-1442.0,30.0,9
-289.5,-22.25,-219.75,-57.75,-40.25,-231.25,-1445.25,183.75,9
-333.25,-29.0,-134.25,82.0,22.75,-310.25,-1381.25,246.0,9
-354.25,-39.75,372.0,260.75,196.5,-325.25,-1290.75,243.5,9
-358.0,-47.0,1024.75,327.75,239.0,-272.25,-1234.0,206.5,9
-341.25,-44.5,987.25,254.25,228.5,-192.75,-1181.75,45.0,9
-280.25,-19.5,955.25,325.25,284.25,-168.75,-1252.0,-141.5,9
-223.25,-10.5,976.0,306.25,374.0,-114.0,-1292.75,-259.75,9
-64.5,-18.75,978.5,-61.25,362.25,-23.25,-1237.0,-587.75,9
39.0,-0.75,957.25,48.25,269.5,72.75,-1256.25,-808.0,9
93.75,8.5,923.25,106.5,248.5,163.0,-1188.0,-812.5,9
144.25,10.75,590.0,-107.5,206.25,-35.5,-1016.25,-688.25,9
139.0,-5.0,266.5,226.25,114.25,-190.75,-941.75,-493.75,9
89.0,-14.75,45.25,262.0,122.25,-112.5,-664.5,-260.75,9
-36.5,-12.75,-42.75,86.5,151.0,41.75,-141.0,-301.5,9
-174.0,-21.0,-77.5,317.25,56.25,167.0,102.25,-505.5,9
-187.0,4.25,-179.5,177.5,59.25,264.25,330.0,-339.0,9
-176.5,25.25,-174.25,-91.0,68.75,261.0,476.75,-179.75,9
-183.25,19.0,-148.25,-50.5,13.75,138.25,437.75,-12.75,9
-171.25,5.25,-133.75,204.5,162.75,172.75,261.0,-30.0,9
-148.0,-9.25,-81.75,113.0,475.0,300.75,291.0,-74.5,9
-30.0,-16.75,-214.0,-405.0,657.75,448.25,462.5,35.0,9
92.75,-33.0,-296.75,-220.75,666.75,584.0,608.0,51.25,9
108.75,-16.0,-351.5,6.5,714.0,604.25,680.75,73.75,9
16.25,-3.5,-461.75,-146.25,857.75,492.25,789.75,-1.75,9
-93.0,-24.5,-535.25,-201.0,1032.75,374.75,875.0,-30.25,9
-97.0,-16.0,-617.5,-135.25,1175.5,361.0,877.25,-43.25,9
-46.25,-24.5,-615.75,109.75,1345.75,316.75,902.5,-95.25,9
-39.5,-6.5,-559.5,1.5,1473.75,239.0,939.75,-94.75,9
134.75,13.25,-597.25,-184.25,1499.0,185.25,847.75,-53.0,9
366.0,6.25,-528.0,-152.0,1467.75,117.75,479.5,6.75,9
455.5,19.5,-269.75,-94.25,1412.5,88.25,539.75,-15.5,9
529.75,9.75,-209.25,-126.5,1324.5,-30.5,1074.5,183.25,9
609.0,58.75,-169.5,-439.0,1012.5,-432.5,1652.25,730.25,9
919.25,246.0,64.0,-533.0,1053.25,-738.75,1711.0,707.5,9
828.25,428.5,180.25,-424.5,1309.25,-777.75,1331.25,615.5,9
553.5,561.25,-99.25,-442.0,1372.0,-767.75,922.75,683.5,9
444.0,659.75,-204.25,-474.0,1360.5,-753.75,762.75,487.75,9
307.25,581.75,-190.5,-496.25,1401.25,-475.5,823.25,375.0,9
55.75,368.75,-176.5,-654.0,1740.0,-333.25,445.75,66.5,9
66.25,198.25,-9.25,-289.75,2029.0,-32.5,2.25,-91.5,9
252.75,230.5,-16.5,-58.5,1719.75,64.0,-430.5,-24.5,9
460.75,398.0,-46.5,-80.5,1474.75,135.25,-951.5,-48.5,9
411.25,477.0,-242.5,-88.75,1251.75,196.25,-1042.5,66.25,9
276.0,433.0,-309.25,-62.0,1013.75,293.5,-1216.75,54.25,9
168.5,379.0,-278.75,-53.25,884.5,402.0,-1241.75,35.5,9
132.75,363.75,-198.75,-28.5,831.75,416.25,-1334.75,-164.5,9
-55.75,341.25,19.5,36.5,1057.25,406.5,-1416.75,-300.5,9
-139.25,341.25,167.25,-152.0,1255.5,298.5,-1365.25,-390.5,9
-157.0,304.75,154.0,-382.75,1392.25,343.25,-963.25,-331.25,9
-218.25,272.5,77.25,-81.25,1493.5,327.5,-72.25,-238.25,9
-379.0,213.5,160.25,217.75,1680.25,317.25,520.5,-210.75,9
-636.0,77.75,207.75,387.75,1769.5,297.5,695.25,-104.75,9
-706.75,-70.0,104.5,621.5,1817.25,178.5,234.25,-51.75,9
-643.25,-202.75,67.5,577.75,1814.25,163.0,-453.5,47.0,9
-403.0,-285.5,115.5,462.75,1826.25,134.25,-781.5,66.75,9
-236.75,-402.0,36.5,345.5,1903.0,67.0,-696.25,96.5,9
-228.75,-439.0,-1.5,476.5,1929.75,1.25,-358.25,119.5,9
-278.25,-468.0,-83.5,366.0,1930.75,-74.0,-169.5,135.5,9
-429.5,-486.25,-72.75,103.25,1814.25,-0.75,-192.75,164.5,9
-566.75,-516.5,-54.75,-13.5,1671.25,222.0,-502.25,167.75,9
-614.0,-539.75,-46.5,338.25,1533.5,352.5,-513.0,175.75,9
-604.75,-550.0,122.25,716.0,1250.5,499.0,32.5,174.0,9
-548.0,-523.75,124.0,645.75,923.0,654.0,496.0,196.75,9
-429.75,-482.5,-34.5,400.25,772.5,794.75,916.0,236.25,9
-340.5,-482.25,-134.25,294.75,959.25,1046.25,1244.0,264.75,9
-362.0,-485.5,-9.25,238.25,1182.25,1291.0,1069.0,304.0,9
-424.75,-497.0,216.5,374.75,1261.75,1426.5,600.5,381.25,9
-450.25,-517.5,300.25,753.25,1534.25,1426.5,240.75,400.75,9
-431.0,-516.75,129.5,103.0,1540.25,1401.0,198.5,460.0,9
-290.25,-503.75,8.25,-75.75,1335.5,1259.5,379.0,476.75,9
-15.0,-494.5,-101.0,-163.25,1064.0,898.75,855.0,461.5,9
130.75,-458.0,-102.5,162.0,678.75,441.0,1505.5,426.0,9
117.75,-428.5,147.5,695.0,592.25,285.75,1859.0,352.25,9
89.5,-349.0,172.0,220.0,626.25,396.0,1884.25,260.0,9
66.75,-251.75,-51.75,228.0,537.75,352.0,1986.75,95.75,9
85.5,-198.0,-254.0,185.0,436.25,424.5,1728.5,-27.75,9
472.25,-113.0,-370.0,394.5,291.0,431.75,869.75,-171.5,9
832.5,-33.25,-351.25,272.0,432.0,333.75,356.0,-454.25,9
868.25,22.5,-227.0,334.25,658.0,304.75,421.25,-853.25,9
766.5,-42.75,-224.0,515.0,1218.25,347.75,672.0,-984.5,9
2.5,-327.0,-115.75,328.0,1521.25,555.0,653.0,-830.25,9
-509.0,-320.0,104.25,223.5,1176.75,426.75,693.25,-710.25,9
-704.5,-263.0,211.75,-163.25,839.25,267.75,436.5,-644.5,9
-845.5,-284.0,294.75,-98.0,499.25,112.5,-244.75,-493.75,9
-802.75,-187.0,304.0,-252.0,-187.0,-169.0,-644.0,-266.75,9
-697.0,-76.5,204.5,-931.5,-667.75,-389.25,-696.75,-80.5,9
-1271.0,29.25,130.5,-851.25,-1114.5,-561.25,-588.0,97.0,9
-974.25,141.5,204.0,-184.75,-1422.0,-607.0,-319.5,137.25,9
-922.5,155.0,225.5,-202.5,-1639.0,-620.5,-175.0,129.5,9
-1023.0,92.25,236.25,-98.75,-1099.25,-612.5,-107.75,63.75,9
-455.0,-47.25,277.75,-18.0,-820.5,-624.25,-64.75,141.25,9
765.25,74.75,244.25,-40.25,-854.0,-769.0,-97.75,191.0,9
877.75,100.75,176.5,-142.75,-572.25,-888.5,-70.5,192.75,9
753.5,87.75,106.75,-457.5,-558.25,-1072.0,-154.5,223.25,9
769.5,110.75,101.75,-730.25,-621.25,-1156.25,-303.5,308.0,9
873.75,173.75,-15.25,-956.0,-1218.0,-1077.75,-348.0,363.0,9
1412.75,411.75,-161.5,-757.25,-1736.0,-1160.25,-286.75,214.0,9
1331.25,645.5,-376.25,-701.75,-1879.75,-1364.25,-309.5,456.75,9
879.5,952.75,-535.75,-589.5,-1919.5,-1416.25,-547.75,566.5,9
685.25,881.75,-331.0,-530.75,-2005.0,-1339.0,-395.5,423.5,9
483.0,752.5,-63.0,-566.5,-2000.75,-1095.25,573.5,359.0,9
302.0,655.0,151.25,-426.5,-1593.5,-904.5,1210.75,148.0,9
81.5,499.75,352.0,-357.0,-1086.75,-755.5,612.25,69.5,9
-1.0,397.25,403.25,-152.5,-636.0,-580.75,-314.0,-70.0,9
-111.5,256.75,241.25,-28.5,-377.0,-442.75,-840.25,-270.0,9
-204.5,105.75,-23.5,16.5,-204.25,-274.5,-933.0,-432.75,9
-439.75,13.0,-153.25,94.75,-293.0,-189.5,-820.75,-453.25,9
-555.5,-21.25,-104.5,101.5,-565.5,-133.25,-603.0,-488.25,9
-626.0,-36.5,-51.25,171.5,-659.0,-74.5,-461.25,-623.25,9
-758.75,-102.5,9.75,410.5,-646.75,-18.75,-734.0,-784.5,9
-986.5,-216.5,58.75,324.25,-655.75,46.5,-999.5,-909.5,9
-1254.75,-403.25,86.0,96.5,-837.25,156.5,-908.75,-1015.25,9
-1238.75,-640.25,146.25,546.25,-1003.25,277.75,-563.0,-1177.25,9
-1179.0,-680.25,225.0,710.25,-1056.25,295.25,-281.25,-1174.0,9
-1067.25,-632.75,211.25,553.0,-1154.25,135.5,-71.5,-1060.0,9
-913.25,-600.25,146.25,500.75,-1461.75,-24.25,13.0,-940.0,9
-805.0,-570.75,115.0,503.5,-1834.5,-54.0,-166.0,-789.25,9
-730.25,-459.75,67.0,547.0,-2107.25,-129.0,-347.25,-596.25,9
-666.75,-364.0,47.25,359.0,-2074.0,-195.5,-461.0,-468.5,9
-624.75,-251.75,-36.0,29.0,-1793.0,-205.25,-510.75,-351.5,9
-692.25,-222.0,-150.5,47.0,-1477.5,-125.25,-580.0,-239.5,9
-822.0,-233.75,-229.75,-80.75,-1478.25,-49.0,-361.0,-68.75,9
-689.75,-152.0,-276.0,-225.25,-1565.25,-53.25,64.25,86.0,9
-436.25,-63.0,-131.75,201.0,-1248.25,-30.25,12.0,171.25,9
-344.5,-52.75,103.0,184.25,-1005.0,-72.25,-356.0,238.25,9
-189.25,7.0,131.75,251.25,-557.75,-228.25,-701.0,254.75,9
-55.25,2.75,95.25,520.25,-159.5,-448.0,-878.0,348.5,9
179.5,32.25,73.75,120.5,-26.5,-680.25,-599.0,445.5,9
505.5,115.75,21.75,-70.0,309.25,-746.75,-179.75,535.25,9
712.75,165.5,18.75,-166.25,225.75,-528.5,-74.0,629.5,9
889.0,225.5,63.75,81.25,106.25,-204.0,-135.5,632.5,9
863.0,240.0,140.25,65.25,167.0,-28.75,314.0,644.75,9
773.25,292.75,76.5,-264.0,266.75,110.25,1321.5,670.5,9
678.0,315.75,-54.0,-145.0,338.5,340.25,1633.25,701.25,9
539.25,328.75,-175.75,-249.25,272.0,361.75,1274.0,729.5,9
439.25,315.25,-300.5,-433.0,7.75,305.0,1203.75,761.5,9
352.5,245.5,-356.5,-623.75,-195.0,328.5,1517.0,793.0,9
233.0,229.0,-391.0,-677.5,-108.25,219.75,1661.0,748.75,9
126.0,241.5,-293.0,-425.75,-12.75,225.0,1786.25,712.75,9
64.25,262.25,-205.75,-508.25,-69.0,233.5,1635.75,670.75,9
42.25,266.0,-205.25,-374.75,89.75,102.75,1063.75,622.0,9
75.25,267.25,-280.5,-258.5,483.75,3.5,986.5,627.25,9
221.5,304.0,-299.25,-472.0,683.0,-24.75,1476.25,639.5,9
399.0,275.5,-168.75,-373.5,940.75,119.0,1950.5,580.5,9
388.0,169.5,-172.25,-416.25,1037.75,321.25,1340.5,504.0,9
272.75,108.0,-171.75,-526.5,999.25,485.25,-363.75,452.75,9
242.75,89.75,-122.75,-561.75,1419.0,701.5,-948.0,225.75,9
-11.5,-16.75,-65.25,-325.25,1841.0,808.25,-833.25,86.25,9
-28.75,51.0,27.25,-362.25,1208.5,702.5,-619.5,179.5,9
380.0,243.5,39.0,-748.0,827.75,596.25,-330.5,225.75,9
430.0,193.25,20.5,-501.25,1220.0,578.0,213.25,207.25,9
360.5,88.75,48.25,-64.0,1627.75,629.75,1367.5,146.0,9
418.0,64.5,51.25,-185.25,1464.25,575.25,1789.5,124.25,9
459.0,87.25,1.0,-254.0,1150.5,415.5,1529.75,105.25,9
493.75,125.5,-35.0,-330.25,845.75,203.75,1617.75,161.75,9
559.0,210.25,-115.0,-335.75,396.75,-1.75,1388.25,151.25,9
438.75,188.0,-272.5,-129.0,357.75,-112.5,490.5,-7.25,9
255.75,92.5,-431.0,-126.25,153.75,-313.25,-197.25,-106.5,9
292.0,111.75,-558.75,-29.0,-136.75,-493.75,-1010.0,-211.75,9
227.25,74.25,-518.0,30.5,-39.5,-528.75,-1235.0,-332.5,9
-2.75,-72.5,-112.5,332.0,323.25,-482.75,-1503.25,-482.5,9
-389.5,-212.25,386.25,713.5,369.75,-432.75,-1745.25,-605.5,9
-649.0,-280.25,595.0,765.5,77.5,-373.75,-1538.25,-560.25,9
-623.5,-214.5,573.5,716.75,-138.5,-164.0,-1210.5,-544.75,9
-807.75,-279.75,489.0,935.75,-451.25,18.5,-945.5,-556.75,9
-1055.5,-367.25,347.0,722.5,-654.75,52.0,-779.25,-409.75,9
-760.5,-181.75,247.25,246.75,-809.75,98.75,-582.0,-208.75,9
-327.25,15.0,219.5,106.0,-732.0,264.0,-1046.0,-164.0,9
-329.75,-22.75,202.25,158.75,-119.5,530.25,-1909.0,-192.0,9
-300.75,-63.0,159.75,23.5,-146.75,585.0,-1576.25,-150.75,9
-34.75,-63.5,156.75,56.5,145.75,537.0,-996.25,-223.0,9
-187.75,-242.5,162.5,465.0,965.75,454.25,-1000.0,-202.75,9
-176.25,-296.5,60.5,194.5,1156.5,328.75,-762.25,-143.0,9
-197.0,-359.0,71.25,312.5,1397.5,258.0,-808.25,-186.25,9
-234.0,-372.75,100.5,234.5,1022.5,107.25,-221.0,-185.0,9
-222.25,-370.0,139.75,393.5,1491.75,138.0,-42.0,-345.25,9
-468.5,-471.25,225.25,556.75,1795.75,136.0,-276.0,-284.75,9
-178.75,-202.5,175.5,55.25,1525.5,51.75,-401.25,-235.25,9
-70.75,-98.5,186.25,200.5,1776.25,89.0,-988.5,-191.0,9
103.75,54.75,152.0,14.25,1248.25,105.0,-718.75,-77.25,9
291.0,154.5,112.75,131.75,1450.75,54.75,-150.0,-114.5,9
148.5,139.0,58.25,14.75,1532.5,-91.25,-522.0,-23.25,9
334.5,192.5,10.75,-326.75,1942.0,-122.5,-1340.5,-35.0,9
292.5,80.75,78.0,-279.5,2251.5,-268.0,-1056.25,49.25,9
597.0,144.25,67.75,-464.0,1912.0,-487.25,-586.0,136.5,9
626.0,133.25,39.25,-373.75,1905.5,-529.0,-327.0,151.5,9
348.75,91.75,19.0,-235.25,2200.5,-594.25,137.5,105.5,9
59.25,16.5,-5.25,-47.75,2388.25,-709.0,391.5,89.0,9
-24.25,56.0,-54.25,-110.75,2088.75,-715.75,638.25,155.75,9
-49.25,135.0,-91.75,-199.25,1986.5,-668.5,804.0,137.5,9
-301.5,111.5,-68.5,-127.25,1933.75,-745.25,744.0,196.5,9
-156.75,206.25,-31.25,-108.75,1710.25,-795.0,434.5,209.5,9
-48.75,253.5,17.5,-375.5,1576.5,-773.5,504.0,247.25,9
42.0,321.25,-2.75,-611.25,1007.5,-737.5,473.0,266.5,9
64.25,341.5,-38.5,-399.0,675.0,-722.0,502.75,292.25,9
197.75,405.0,-115.75,-563.25,61.5,-841.25,848.75,419.75,9
444.75,542.75,-211.5,-712.5,-57.5,-739.75,1030.0,380.75,9
402.75,376.75,-154.0,-416.5,758.75,-274.5,1108.0,250.75,9
228.5,106.5,-45.0,-58.25,1044.5,136.0,1194.25,208.75,9
23.25,-28.5,46.75,184.5,670.5,316.0,1394.25,246.5,9
67.0,-69.5,-0.75,62.75,114.0,657.25,955.25,318.25,9
-197.25,-196.75,-24.25,106.0,-128.75,1140.0,304.5,350.25,9
-527.25,-303.75,61.0,258.25,-274.5,1256.0,159.0,315.75,9
-353.75,-143.75,91.75,325.75,-607.25,1226.25,473.5,365.25,9
-3.25,111.75,39.5,-182.0,-1081.5,1177.25,918.0,453.75,9
466.25,293.25,-44.0,-484.5,-955.75,1019.0,909.75,446.0,9
358.5,239.5,-24.0,-277.0,-341.0,820.75,1000.0,555.75,9
590.5,399.0,-53.5,-620.75,-200.25,650.5,1118.75,635.75,9
470.5,307.5,-20.5,-282.75,596.5,390.0,1087.75,332.75,9
-531.25,-267.75,96.0,321.25,1304.25,230.25,1115.5,7.25,9
-1134.25,-629.75,148.5,730.75,1176.0,152.25,1056.5,4.75,9
-1048.0,-605.75,108.25,776.25,989.75,-38.75,774.5,160.75,9
-495.5,-241.0,-56.75,200.5,697.5,-419.25,548.25,681.75,9
449.0,511.5,-184.0,-433.0,193.25,-830.25,728.5,1188.0,9
866.75,721.0,-34.25,-406.75,106.25,-791.5,731.75,1053.0,9
153.5,440.75,310.0,-334.25,-132.5,-543.0,546.25,683.25,9
-184.75,415.5,313.5,-547.25,-753.25,-420.5,356.75,442.5,9
-189.5,385.0,303.0,2.25,-996.0,-0.5,309.5,69.75,9
-196.25,180.5,211.5,192.75,-1420.25,281.75,198.5,-58.5,9
-115.5,201.5,-41.5,172.75,-1183.25,384.0,-179.75,-351.75,9
-252.75,-13.75,-318.25,127.25,-963.5,527.0,-577.25,-369.5,9
-103.0,-138.0,-810.0,-199.5,-386.25,639.5,-839.0,-375.75,9
166.0,-280.75,-1025.25,-230.25,-229.75,717.25,-788.75,-596.0,9
622.25,-236.25,-935.0,51.5,-526.0,742.25,-656.5,-1157.0,9
-110.5,-643.5,-353.75,1034.5,-643.75,1079.25,-443.25,-1303.75,9
-639.5,-887.75,359.0,949.5,-758.0,1001.0,5.5,-1111.25,9
-550.0,-795.5,484.75,734.75,-1514.25,546.25,472.0,-989.75,9
-398.75,-778.25,493.0,780.0,-1971.5,523.0,624.75,-731.5,9
-436.25,-667.25,412.25,642.75,-1866.75,231.25,729.5,-621.0,9
-318.5,-425.5,191.75,661.25,-1894.5,137.25,836.0,-584.25,9
-384.5,-412.5,118.0,617.0,-1847.75,207.0,549.75,-368.75,9
-324.0,-248.5,-31.25,402.5,-1594.0,213.75,467.0,-333.75,9
-389.25,-205.5,-182.0,209.75,-1230.0,332.75,1256.0,-210.0,9
-310.75,-97.0,-286.0,15.0,-940.5,407.5,1704.75,-145.75,9
-255.5,-41.0,-487.25,-112.75,-790.5,705.0,1340.5,-75.0,9
-243.0,42.25,-602.5,-307.0,-744.25,838.75,517.25,-89.5,9
-197.25,87.0,-432.75,-158.75,-646.25,752.75,-294.25,-151.0,9
-221.75,81.25,-267.0,183.75,-529.0,614.5,-278.0,-193.25,9
-193.0,104.75,-148.0,301.75,-506.75,434.25,-140.75,-193.75,9
-306.75,94.0,-66.25,133.25,-505.25,134.25,701.75,-162.25,9
-171.5,122.75,-88.0,-44.25,-516.25,-202.25,1103.5,-131.5,9
-31.0,102.5,-68.5,-93.75,-453.75,-369.75,923.25,42.25,9
4.25,124.5,-94.75,-72.75,-417.25,-356.0,1065.75,202.5,9
-8.0,104.25,-201.25,-238.75,-278.0,-186.5,1119.5,124.5,9
116.0,91.75,-256.75,-308.5,-271.5,32.25,1245.75,-135.0,9
247.75,90.75,-229.75,-229.75,-369.0,89.75,994.75,-292.25,9
337.0,107.75,-203.5,-325.75,-384.0,92.25,967.25,-255.25,9
428.0,119.5,-208.0,-287.0,-330.0,139.5,801.5,-185.75,9
479.75,98.75,-200.25,-241.25,-79.75,160.5,445.0,-178.0,9
511.5,72.25,-148.5,-239.75,140.75,233.25,375.0,-152.0,9
433.0,61.0,-118.5,-304.5,224.0,221.25,484.75,-113.75,9
396.0,57.25,-78.5,-227.75,331.5,317.5,781.75,-73.25,9
301.75,7.25,-37.25,-15.0,401.0,415.0,1036.25,-131.0,9
214.0,-10.0,-12.25,-94.0,358.5,244.75,1190.75,-222.0,9
160.75,26.25,76.25,-37.0,370.0,-108.0,774.25,-204.75,9
122.75,82.25,76.0,-8.0,286.5,-539.75,388.0,-186.5,9
116.25,79.0,-8.25,82.0,214.5,-734.5,83.75,-144.25,9
84.0,59.0,4.25,68.0,158.0,-957.25,-716.75,-97.75,9
47.25,46.75,50.5,-121.0,110.75,-1139.25,-1235.25,-15.75,9
16.0,25.25,101.0,-137.25,258.5,-887.75,-720.25,81.25,9
-26.5,21.0,173.25,-157.25,285.75,-696.0,-887.25,57.0,9
-59.0,37.5,124.75,6.25,119.25,-521.0,-610.25,-58.0,9
-59.75,62.5,89.0,28.0,-16.0,-219.75,536.0,-87.0,9
-107.25,64.25,115.5,-45.25,-226.75,-67.25,491.25,-43.5,9
-91.5,105.0,18.5,-124.0,-426.75,-51.25,-138.0,-161.0,9
-104.25,124.75,3.0,-30.0,-476.5,-92.5,-1410.5,-331.25,9
-165.75,84.25,9.25,-67.25,-529.25,-111.25,-1998.5,-460.0,9
2.0,38.25,40.0,-148.0,-665.0,-313.5,-2013.25,-529.0,9
117.25,-2.5,153.0,1.25,-739.5,-601.5,-2019.75,-461.5,9
85.0,-11.75,125.5,-34.0,-665.25,-882.25,-1596.75,-340.5,9
168.75,-36.5,98.25,-127.0,-572.0,-977.25,-716.75,-191.75,9
357.25,-5.0,70.75,-280.0,-412.5,-792.5,-309.0,-48.0,9
415.25,71.0,75.25,-285.5,-200.0,-711.5,-108.0,114.0,9
269.0,55.75,120.0,-316.0,24.75,-531.75,-122.25,286.25,9
135.75,31.25,194.75,-186.5,254.75,-371.0,113.25,398.75,9
88.25,42.25,240.5,-52.75,474.25,-462.25,98.75,470.75,9
11.5,27.75,161.25,-149.0,484.25,-754.25,266.25,535.0,9
-23.5,8.5,88.0,-162.75,402.0,-965.5,296.0,557.0,9
21.0,-8.0,50.5,-189.5,412.5,-727.0,112.0,601.75,9
70.0,-13.0,67.0,-192.5,487.25,-429.5,-108.0,632.75,9
180.75,-11.0,32.75,-253.75,514.5,-232.75,149.25,536.75,9
299.75,47.25,-5.0,-168.5,602.5,-78.25,437.5,506.25,9
378.75,96.75,-42.75,-10.5,758.5,35.0,324.5,449.0,9
380.5,112.25,-50.25,-30.75,987.25,103.0,363.0,274.5,9
539.75,136.5,-35.75,-154.25,1211.0,4.0,284.75,139.25,9
720.25,163.75,-63.5,-126.75,1410.0,-45.5,348.0,73.0,9
587.25,121.25,-46.75,-104.25,1657.0,78.25,233.5,84.25,9
419.5,57.5,-70.25,-238.25,1605.75,158.25,138.0,121.0,9
181.5,79.0,-102.5,-283.5,1624.0,330.0,117.5,241.5,9
-14.25,90.75,-100.0,-261.25,1691.5,539.5,29.0,485.5,9
-62.75,88.5,-115.25,-226.75,1739.5,583.25,-3.75,752.75,9
-98.0,60.5,-137.0,-161.75,1896.75,442.75,-188.0,804.75,9
-130.25,36.25,-117.25,-72.5,1804.25,152.25,-282.25,600.5,9
-174.25,11.75,-122.75,-62.75,1740.0,128.75,-37.25,578.0,9
-107.75,25.25,-134.75,-76.75,1430.0,252.0,404.75,767.5,9
-68.0,53.0,-115.75,-146.5,1168.75,214.0,374.5,637.25,9
-151.0,19.0,-142.0,-100.25,1076.5,194.25,52.0,395.0,9
-250.25,41.5,-181.5,-133.5,689.75,247.0,-132.0,243.0,9
-207.75,81.75,-133.25,-170.5,728.0,466.25,-475.5,51.0,9
-122.75,62.0,-32.5,-52.0,739.0,430.25,-831.75,64.0,9
-48.25,57.5,27.75,-88.0,380.75,301.25,-872.25,-157.25,9
174.25,40.0,97.5,-23.5,257.5,298.75,-895.25,-506.25,9
309.0,14.25,124.25,10.25,6.75,39.0,-937.5,-581.75,9
336.75,-46.5,154.75,114.5,-156.0,-120.25,-747.75,-548.5,9
239.5,-136.0,187.75,166.0,-181.5,40.75,-433.75,-389.5,9
110.5,-120.75,165.25,-5.5,-88.75,291.0,-429.75,-541.75,9
20.25,-115.0,164.75,-11.75,140.25,121.25,-463.75,-510.5,9
-126.0,-118.5,152.5,79.25,64.25,-152.0,-550.0,-422.25,9
-207.0,-151.25,156.5,157.0,127.0,-65.5,-508.0,-533.75,9
-150.25,-125.25,165.75,58.75,-65.75,6.0,-259.25,-100.5,9
-44.75,-64.25,174.0,40.5,-85.25,-70.5,-120.5,263.75,9
-48.0,-61.25,176.5,-69.5,-143.25,-116.75,73.5,135.75,9
-25.25,-23.5,168.25,-143.75,-188.75,3.75,200.75,98.75,9
-49.5,-53.25,155.25,131.0,-155.75,181.25,212.5,-48.25,9
-87.0,-112.75,127.75,278.75,-533.0,352.25,382.0,-171.0,9
-151.0,-173.75,110.75,274.75,-755.0,479.75,684.0,-49.25,9
-202.25,-129.75,32.25,71.75,-1162.0,498.25,1081.0,61.0,9
-123.75,52.0,-75.75,-222.0,-1633.0,391.75,1398.75,280.25,9
-112.0,73.75,-79.5,-102.75,-1140.5,494.75,1442.75,201.5,9
-409.5,-246.25,26.0,479.75,-210.5,693.75,1425.75,22.25,9
-657.0,-414.25,89.25,675.25,-228.75,686.0,1446.0,54.0,9
-650.0,-310.25,108.0,546.0,-506.0,790.5,1379.25,17.75,9
-843.25,-323.75,153.5,550.25,-536.5,871.25,1400.75,-12.75,9
-474.25,-249.5,128.0,470.0,-985.5,764.0,1399.0,-26.0,9
61.0,-177.0,91.25,407.5,-875.5,654.0,912.25,-95.5,9
222.5,-92.25,45.75,303.25,-1016.75,537.5,430.25,-171.75,9
359.0,35.0,-43.0,234.75,-994.0,289.25,69.0,-46.0,9
149.25,77.0,-132.0,221.5,-1018.75,-22.25,-222.5,130.75,9
1.5,76.0,-164.5,243.5,-1263.5,85.5,-505.25,16.25,9
-185.5,62.75,-91.25,413.5,-1465.0,230.0,-721.25,-123.25,9
-338.25,102.5,-19.25,476.5,-1484.25,92.75,-785.5,-152.25,9
-446.0,26.5,131.0,404.25,-2231.5,155.25,-870.75,-168.75,9
-409.0,71.5,171.75,108.25,-2719.75,120.0,-980.0,-43.0,9
-178.0,77.25,167.75,7.5,-2535.25,196.5,-1009.0,54.25,9
-246.0,-35.25,227.25,114.0,-2278.0,390.25,-995.0,7.75,9
-212.5,13.25,204.75,75.25,-2347.5,228.75,-952.0,-62.5,9
-199.0,-17.25,208.25,75.25,-2220.25,134.5,-883.75,15.75,9
-204.75,-16.0,88.0,-49.5,-2235.25,103.25,-866.5,-70.0,9
-258.0,-49.5,4.5,-24.0,-2273.25,122.75,-890.0,-241.5,9
-259.0,25.0,-82.5,-173.5,-2455.75,199.5,-907.5,-157.75,9
-187.75,84.75,-173.75,-220.5,-2274.5,244.5,-930.5,-139.5,9
-223.5,37.5,-171.75,-164.0,-2012.0,320.25,-943.5,-147.0,9
-137.0,48.25,-196.75,-202.5,-1614.25,318.0,-758.25,-160.0,9
-118.5,-28.25,-167.5,-140.0,-1512.5,285.25,-578.0,-163.25,9
-95.75,-67.75,-167.25,-178.0,-1736.25,240.5,-537.5,-232.25,9
-51.5,-77.5,-109.75,-158.75,-789.0,135.75,-502.0,-312.0,9
-16.5,-10.25,-13.0,-161.0,-332.75,34.25,-408.75,-39.25,9
44.5,31.0,61.25,-86.75,-51.25,-61.5,-219.0,34.0,9
96.25,66.75,57.25,-192.0,179.0,-132.0,-66.75,165.0,9
153.5,139.0,8.5,-333.5,263.75,-131.0,-31.5,402.75,9
199.5,151.25,-28.25,-287.25,313.25,-71.0,-103.5,394.5,9
207.5,153.5,-70.75,-258.75,361.75,-69.75,-193.25,527.25,9
125.25,140.5,-74.75,-290.5,383.75,-106.25,-344.5,486.5,9
28.5,128.25,-87.0,-254.5,678.25,-46.25,-511.75,410.0,9
16.75,110.5,-70.25,-77.0,1001.0,31.25,-632.75,348.5,9
77.25,107.5,-58.5,-35.5,1253.25,7.25,-710.75,350.0,9
82.25,86.0,-56.25,-30.0,1821.5,123.75,-795.0,429.25,9
4.0,62.5,-77.5,-18.5,2032.5,256.75,-853.5,338.5,9
-61.25,49.75,-84.0,70.75,2047.5,183.5,-810.25,239.5,9
-17.25,40.25,-52.0,148.75,2168.25,170.75,-745.75,229.5,9
6.75,44.5,-47.75,18.5,2055.0,-78.0,-491.25,204.75,9
42.0,54.0,-50.5,-89.75,2034.0,-560.5,-147.75,-3.5,9
92.5,35.75,-60.0,-138.25,1867.75,-963.75,47.0,-114.25,9
80.75,14.5,-69.0,-155.75,1626.75,-1272.75,317.25,-25.5,9
69.0,23.5,-90.5,-164.0,1684.0,-1122.25,589.75,49.25,9
161.25,32.25,-87.25,-188.75,1723.5,-803.75,707.25,185.0,9
242.75,40.5,-83.25,-233.0,1612.0,-882.25,869.25,343.5,9
186.5,7.75,-82.5,-254.75,1626.25,-821.75,1077.5,278.75,9
112.75,93.75,-74.25,-220.75,1883.25,-603.5,1130.0,90.0,9
73.25,157.0,-56.75,-199.25,2197.25,-472.0,1197.0,115.25,9
120.25,156.25,-33.5,-215.75,2074.5,-397.0,1294.75,172.25,9
159.5,206.0,-49.5,-261.0,1977.5,-385.0,1289.25,-24.0,9
131.75,169.75,-61.25,-233.75,1992.0,-330.75,1207.5,-219.25,9
110.5,159.75,-88.5,-217.75,2012.0,-318.0,1159.0,-365.5,9
207.5,254.25,-120.25,-339.0,1507.25,-326.25,1194.25,-597.5,9
326.5,371.75,-148.25,-422.75,1193.75,-280.75,1265.5,-279.5,9
375.5,377.75,-168.5,-380.0,1215.75,-230.0,1387.0,-179.5,9
399.0,294.25,-202.5,-497.25,938.25,-274.5,1416.25,-628.75,9
411.5,234.0,-290.0,-510.75,953.5,-341.25,1317.75,-590.25,9
488.75,306.75,-356.0,-472.25,1116.0,-408.25,1269.0,-551.5,9
493.0,423.0,-413.25,-482.5,1075.25,-426.0,1207.25,-338.25,9
363.0,375.0,-424.75,-413.0,1100.25,-392.5,1117.0,-161.25,9
-26.5,283.0,-429.0,-368.25,1126.75,-398.25,1029.0,174.5,9
-133.25,188.5,-356.75,-412.5,1258.75,-311.5,667.75,599.25,9
264.25,132.75,-188.0,-402.75,1419.0,-127.25,-222.0,70.0,9
391.5,93.5,2.75,-295.0,1175.5,143.25,-855.25,-443.5,9
264.75,32.75,159.5,-259.0,368.0,357.0,-867.75,-281.5,9
-44.75,14.75,221.0,-241.0,299.25,546.5,-934.5,-477.25,9
-407.5,-45.0,256.0,-128.75,503.75,632.25,-861.0,-413.5,9
-625.75,-64.25,286.5,-75.25,755.0,707.0,-160.75,-124.5,9
-837.0,-101.5,342.75,64.25,813.0,844.0,822.5,219.5,9
-953.75,-75.25,438.75,182.25,607.75,800.25,1155.75,425.0,9
-1121.5,98.0,547.25,324.5,324.5,681.0,1174.5,282.5,9
-1134.5,111.75,590.75,440.25,-175.5,548.75,1070.25,291.5,9
-675.0,-64.0,564.25,521.0,-799.25,563.5,922.75,318.5,9
-124.5,-168.75,499.25,566.75,-1106.5,638.5,894.25,440.5,9
135.5,-208.25,416.25,562.5,-1175.25,668.25,944.75,446.25,9
223.0,-195.75,335.0,603.0,-1103.5,654.5,863.5,431.5,9
72.5,-172.5,283.0,574.5,-832.5,628.25,543.0,330.0,9
-249.25,35.75,249.75,528.25,-683.5,872.0,184.25,31.5,9
-606.5,204.75,228.75,507.0,-491.75,943.5,-22.0,-234.25,9
-583.0,-179.5,201.25,513.25,-436.5,634.0,-173.75,-456.75,9
-487.25,-495.0,181.5,483.75,-645.5,494.75,-262.25,-748.5,9
-401.25,-453.25,161.5,424.0,-766.5,528.5,-278.0,-861.25,9
44.0,-183.5,120.75,364.75,-373.25,499.5,-347.5,-949.25,9
345.0,217.5,74.0,312.5,429.0,392.75,-550.0,-1002.0,9
580.5,109.25,18.25,268.0,993.75,299.25,-697.0,-929.25,9
756.5,-318.0,-30.25,233.0,1318.25,273.25,-775.0,-912.25,9
932.25,-544.0,-27.5,282.75,1317.0,218.25,-823.0,-592.5,9
906.75,-1065.75,0.0,285.0,983.75,181.75,-776.25,-17.5,9
266.25,-1434.5,-71.0,182.25,586.25,270.0,-687.0,315.0,9
-335.25,-1109.25,-114.0,173.75,406.75,479.5,-632.25,501.5,9
-435.25,-496.25,-41.5,361.75,338.25,528.75,-624.25,223.5,9
-686.25,511.75,145.0,468.5,183.0,488.5,-528.0,-368.5,9
-772.5,665.75,314.25,451.75,399.5,387.5,-383.5,-809.25,9
-843.0,685.5,229.5,434.5,289.25,332.0,-532.75,-1025.0,9
-1120.5,-340.25,102.75,389.75,219.5,237.75,-724.25,-1144.5,9
-997.0,-1246.5,61.0,274.5,355.75,42.5,-901.0,-1310.5,9
-665.75,-1281.5,-35.0,175.25,68.25,-111.0,-1054.25,-954.25,9
-141.25,-1261.5,-98.0,78.75,139.0,-215.0,-1139.25,-622.75,9
192.25,-1030.25,-147.75,21.25,404.25,-293.5,-1271.75,-343.25,9
468.75,-343.0,-218.0,-58.5,590.5,-348.5,-1347.5,-217.25,9
762.0,-134.5,-229.5,-105.0,643.0,-380.5,-1408.75,134.75,9
906.5,-252.0,-232.75,-214.75,938.0,-384.5,-1444.5,711.25,9
848.0,-473.75,-267.5,-271.25,903.75,-396.25,-1448.0,1164.25,9
236.75,-772.25,-288.5,-255.0,850.5,-384.75,-1471.25,1248.75,9
-418.0,-797.75,-314.75,-272.25,907.5,-394.5,-1447.25,895.0,9
-506.5,-777.25,-341.5,-219.0,925.75,-472.5,-1442.75,635.0,9
-385.0,-782.25,-311.0,-194.5,718.0,-546.25,-1400.25,164.75,9
-332.0,-781.0,-265.25,-220.25,598.0,-531.75,-1398.5,-112.25,9
113.5,-724.0,-233.25,-225.0,395.5,-475.5,-1373.0,-47.75,9
592.0,608.0,-228.25,-212.25,-480.75,-397.5,-1309.5,364.25,9
1027.0,1262.5,-220.5,-185.75,-805.75,-306.0,-1300.5,968.25,9
1260.5,1171.75,-261.5,-126.0,-587.0,-250.0,-1293.5,1206.5,9
787.25,1166.25,-295.5,-162.0,-385.75,-200.25,-1284.25,1199.25,9
-354.5,1176.0,-298.5,-267.5,-132.25,-231.25,-1192.0,894.0,9
-945.75,1244.5,-356.5,-325.0,58.25,-196.5,-1161.5,656.0,9
-846.0,1370.25,-322.75,-405.0,209.5,21.75,-1233.0,727.0,9
-840.5,1381.5,-241.75,-376.5,-29.0,-3.75,-1264.25,1023.25,9
-770.25,1245.5,-162.25,-307.0,-885.0,-364.0,-1213.75,1182.5,9
-715.25,1127.0,-72.5,-291.25,-1702.0,-502.75,-1152.25,996.5,9
-29.75,1119.0,-57.0,-313.5,-1695.0,-609.25,-1149.0,702.75,9
715.75,906.25,-41.25,-294.25,-1544.5,-704.25,-1254.25,460.75,9
1009.75,688.25,5.0,-265.0,-1466.0,-655.0,-1195.75,208.25,9
963.0,594.0,25.75,-284.75,-1339.0,-654.0,-860.5,-21.0,9
945.0,453.0,6.75,-195.5,-758.5,-508.5,-683.25,-240.0,9
993.5,442.75,16.25,-70.5,209.0,-404.0,-524.25,-458.75,9
1071.75,392.75,37.0,-36.0,216.5,-412.0,-241.25,-486.75,9
1117.25,344.25,8.5,-140.25,275.25,-242.25,155.75,-338.75,9
766.75,243.75,-27.25,-176.0,399.25,-174.25,618.75,-80.75,9
-148.75,137.0,-56.5,-192.0,212.5,-348.75,692.25,78.0,9
-462.75,341.75,-69.5,-477.5,-92.5,-349.0,544.0,242.25,9
-865.75,599.0,-59.5,-644.25,-222.0,-416.75,465.75,328.75,9
-878.5,879.75,32.25,-268.5,20.0,-258.5,552.75,241.0,9
-539.25,950.75,38.25,111.75,486.75,-77.0,699.75,254.5,9
-403.25,769.75,-24.5,200.25,769.0,-396.5,745.25,275.0,9
-339.5,492.5,-23.5,149.75,1059.25,-461.5,546.5,165.75,9
-144.0,100.5,9.75,84.75,1086.0,-276.75,373.75,135.25,9
-81.75,-240.0,51.5,94.25,1093.75,-13.25,532.25,272.25,9
-264.5,-376.0,124.0,22.5,935.25,180.0,852.25,191.75,9
-155.5,-238.25,163.0,-10.0,750.5,314.5,916.0,101.75,9
-113.25,-229.0,135.0,40.5,696.75,632.25,823.5,168.75,9
-203.25,-153.25,158.0,54.0,776.5,533.25,951.75,348.75,9
-307.75,3.0,106.0,52.5,949.5,148.0,1232.75,506.25,9
-624.75,11.5,33.75,24.5,876.75,96.25,1281.5,394.5,9
-477.75,22.5,6.0,29.0,803.5,51.0,1139.5,292.75,9
-380.25,-47.0,-51.75,43.75,836.75,-43.0,999.0,261.5,9
-342.5,-49.25,-41.25,31.5,687.0,22.75,818.0,278.75,9
71.0,-15.5,-10.75,-48.5,625.0,45.75,665.0,229.5,9
269.75,-86.25,-12.0,-4.5,966.0,5.5,611.75,45.5,9
281.5,-153.25,-30.0,71.5,1126.25,-110.25,677.25,-72.0,9
-216.0,-91.75,-67.75,65.5,1124.25,-142.0,885.75,-203.5,9
-1287.0,-102.0,-85.0,86.5,1124.25,-189.25,1164.75,-364.0,9
-1670.0,-222.75,-113.5,32.0,1102.5,-201.5,1280.5,-550.0,9
-1823.0,-388.5,-176.25,88.0,795.5,-186.0,1295.0,-710.5,9
-1641.25,-651.25,-56.0,119.75,447.75,-183.0,1320.5,-719.25,9
-1067.5,-903.5,117.5,144.75,92.5,22.0,1195.75,-723.25,9
-24.0,-1165.5,214.5,202.5,-171.25,70.5,1237.25,-744.25,9
849.5,-1195.5,242.0,24.0,-567.75,120.0,1340.25,-692.0,9
1273.0,-850.75,163.5,-26.25,-884.75,140.25,1144.5,-685.25,9
612.0,-284.75,90.75,22.0,-935.0,47.0,726.25,-676.25,9
283.0,-377.5,5.0,26.5,-875.5,47.5,541.0,-591.0,9
