0,1,2,3,4,5,6,7,label
-150.25,-177.75,-40.25,30.75,605.25,-72.75,158.75,75.0,0
-97.25,-287.0,-41.0,59.0,545.5,-25.25,183.5,23.0,0
-240.25,-307.25,-25.25,166.75,485.5,47.25,296.5,74.0,0
-169.0,-323.25,-54.0,70.5,191.75,33.25,298.25,95.0,0
-125.25,-131.25,-58.25,195.5,449.75,81.25,306.75,8.5,0
-144.75,35.75,-60.0,150.0,147.75,57.75,191.75,53.75,0
99.0,70.5,-113.25,-182.25,-230.25,10.25,102.5,-107.75,0
163.75,148.5,-118.5,-346.0,-308.5,-12.25,105.25,-150.25,0
227.25,3.75,-106.25,-413.5,-52.75,-39.5,89.25,-189.5,0
121.5,-128.75,-86.0,-256.0,469.5,3.25,65.0,-319.25,0
43.25,-49.5,-48.75,-97.0,737.5,35.75,11.5,-416.0,0
-102.0,-97.5,-10.0,132.25,1330.0,145.25,154.75,-449.25,0
-463.5,-93.25,19.0,338.5,1323.25,176.75,293.25,-206.0,0
-373.5,-52.75,5.5,283.75,893.25,67.75,285.0,-17.75,0
-338.0,-16.0,16.5,260.75,849.75,12.0,213.75,177.75,0
-363.75,31.0,1.75,162.5,481.25,-59.25,75.5,403.5,0
-215.75,20.75,-15.25,73.75,259.75,-44.5,38.25,362.25,0
-178.25,-40.5,12.0,34.25,112.5,-8.5,-8.5,257.0,0
-96.75,-104.25,2.75,6.75,103.0,52.75,3.0,114.25,0
-121.75,-65.75,-0.75,72.75,183.75,81.5,77.0,-42.0,0
-111.5,-32.75,11.0,103.75,-59.5,45.75,48.25,-187.5,0
-46.0,15.75,17.75,37.75,-194.75,51.0,24.5,-298.5,0
39.0,11.25,23.75,-18.0,-175.0,58.25,-42.5,-387.0,0
-8.0,-42.0,14.0,62.0,186.25,82.25,-55.25,-502.0,0
-65.25,-60.75,22.5,54.0,180.75,40.0,-23.5,-570.5,0
-53.25,-49.75,22.75,5.0,165.25,-1.5,3.5,-573.75,0
-53.5,19.0,18.75,-105.25,-15.0,-156.75,-36.0,-284.75,0
110.75,73.0,-1.75,-173.75,-0.5,-260.25,-22.75,32.0,0
64.0,69.25,-18.75,0.25,543.5,-193.75,91.5,222.0,0
1.25,56.5,12.25,122.75,227.0,-124.25,278.0,400.5,0
71.75,52.25,-3.0,57.75,-247.75,-86.0,430.0,488.5,0
141.25,47.5,-16.0,-64.5,-222.75,-67.0,210.75,366.0,0
83.0,43.75,-6.0,35.25,102.0,49.0,101.5,142.25,0
-69.75,29.25,-3.25,106.25,189.25,89.5,42.5,102.5,0
-33.25,62.0,4.5,-41.0,-189.75,44.0,-86.0,136.25,0
98.5,65.25,28.25,-156.5,-305.25,87.0,-179.5,78.0,0
150.5,92.25,37.5,-202.25,-185.25,147.5,-299.75,-34.75,0
147.0,189.5,23.0,-191.0,29.0,191.75,-328.0,-144.5,0
101.5,152.75,-22.0,-151.75,277.75,164.5,-244.75,-170.5,0
74.75,81.5,-56.25,-43.0,320.75,94.75,72.5,-129.75,0
77.25,44.75,-25.25,162.5,456.75,107.0,147.5,-90.0,0
-18.0,2.5,-26.0,198.5,484.0,171.5,204.75,-13.25,0
-84.25,-8.25,-10.75,56.25,214.5,217.5,325.75,79.75,0
-51.5,-32.0,12.25,-41.25,91.75,196.5,248.5,94.25,0
-44.5,-42.5,25.75,16.5,13.0,129.25,255.75,93.0,0
-78.25,-9.0,34.5,-9.25,-23.25,121.75,225.5,131.5,0
-128.25,10.5,14.25,5.0,4.75,106.0,161.0,66.75,0
-128.75,81.0,53.0,155.5,-257.75,20.5,151.0,45.5,0
-35.0,151.5,49.5,104.5,-393.5,-37.5,160.0,112.5,0
8.25,158.0,6.25,-16.5,-430.75,-220.5,-19.75,185.25,0
66.25,134.5,-17.75,-86.0,-321.5,-334.0,-65.0,147.5,0
10.5,29.5,-13.5,-125.0,-59.25,-231.25,56.5,151.25,0
-4.75,9.25,1.0,-209.25,-255.25,-226.5,74.0,307.0,0
137.0,25.25,-20.0,-174.5,-289.0,-142.0,143.75,251.75,0
109.75,-64.75,-17.25,-107.75,-100.5,-17.25,132.5,173.25,0
66.0,-163.5,-9.0,-80.0,25.5,-15.0,113.25,101.0,0
88.25,-114.5,-1.25,-79.25,-119.5,-41.5,97.75,15.25,0
151.0,-15.5,-14.5,-127.25,-267.5,-0.5,150.75,-90.25,0
133.0,39.25,-5.25,-47.25,-207.75,47.25,44.0,-107.0,0
93.75,79.0,11.0,33.0,-250.5,65.25,-244.0,-56.5,0
45.0,48.5,-8.0,19.75,-310.5,107.25,-187.0,-136.75,0
63.25,35.5,-13.25,-47.25,-205.0,131.75,-26.25,-303.75,0
39.5,-35.75,-14.75,-3.0,23.75,156.75,94.0,-381.5,0
-26.0,-69.5,-19.75,-7.25,11.25,142.75,88.5,-207.25,0
-17.25,-70.25,-20.0,-24.5,89.0,83.25,-21.5,-140.5,0
-55.5,-93.5,-17.75,-52.75,37.0,9.25,8.0,-161.25,0
-16.75,-71.75,-4.0,-29.5,86.5,-0.75,171.0,-252.25,0
-40.5,-67.0,21.75,54.5,152.25,-54.75,157.75,-292.25,0
-40.25,-12.0,9.25,21.25,64.0,-149.0,30.75,-154.0,0
-5.0,41.25,3.0,0.75,112.25,-183.5,36.75,-53.5,0
-21.5,61.25,3.25,15.25,166.0,-171.25,-148.0,57.0,0
-28.25,59.0,-36.75,34.5,159.75,-132.5,-310.0,165.75,0
34.5,82.25,-52.5,-68.5,39.75,-132.25,-280.75,262.75,0
7.0,83.5,16.5,20.0,214.25,-36.0,-383.75,289.0,0
-93.5,-23.25,64.25,191.75,277.25,19.75,-269.75,237.5,0
-80.75,-177.0,22.5,76.0,15.75,30.5,-19.0,177.75,0
-3.25,-115.25,-15.25,-40.25,-316.5,86.75,-83.0,107.25,0
37.5,-32.0,-6.75,75.0,-160.25,106.25,-94.5,4.25,0
-67.5,-90.0,-9.75,68.5,162.5,141.75,28.5,-53.25,0
-82.25,-3.0,-24.5,-49.5,140.5,139.0,180.25,47.25,0
14.75,-9.5,-30.0,-195.25,-88.0,112.75,322.0,156.75,0
162.5,27.75,-64.0,-284.0,-406.75,111.0,365.5,150.25,0
206.25,27.75,-58.75,-130.5,-244.0,97.5,261.5,100.25,0
71.75,-31.25,-19.5,-5.25,313.75,124.25,155.75,-4.25,0
-160.25,-52.0,-4.75,32.0,587.5,75.0,-76.0,-0.5,0
-182.0,-56.5,-19.5,21.0,439.0,-29.75,-390.25,46.5,0
-97.25,39.25,16.0,98.25,524.5,-27.75,-558.0,34.75,0
-153.75,8.0,10.75,112.75,654.5,-32.75,-625.25,30.75,0
-170.75,24.25,4.25,34.25,741.5,-87.0,-527.75,30.25,0
-148.75,63.25,15.0,-81.5,639.75,-160.5,-372.75,51.25,0
-120.5,-61.5,8.5,46.0,610.5,-111.75,-244.75,30.0,0
-196.75,-122.75,53.75,222.75,568.75,-55.75,-236.5,144.25,0
-177.25,-60.75,48.0,209.75,249.75,42.5,-254.75,236.25,0
-157.25,-61.0,55.25,170.75,31.5,124.25,-139.5,277.5,0
-103.75,-33.75,37.5,65.5,-221.5,107.0,-43.25,247.0,0
-67.25,-63.75,27.5,43.5,-256.0,154.25,-118.0,151.0,0
-102.25,-35.0,24.5,-51.75,-232.0,182.75,-102.25,167.0,0
-48.75,90.5,-6.0,-132.5,-256.0,179.75,-88.5,193.25,0
-23.0,110.75,-12.5,-41.25,-211.5,108.0,-141.75,233.25,0
-10.25,110.75,-45.5,102.5,-212.0,29.25,-150.0,202.25,0
-5.25,68.75,-38.75,50.5,-260.75,-25.0,-217.25,64.0,0
17.0,12.5,-10.5,-27.0,-288.25,-59.75,-109.25,-157.75,0
-12.75,9.25,15.25,-26.5,-282.0,-87.0,-50.25,-236.0,0
-17.75,8.25,1.75,-182.75,-449.0,-110.25,-80.75,-78.5,0
47.5,38.25,-1.75,-161.0,-388.25,-60.0,-98.5,31.5,0
23.0,80.0,6.0,-55.75,-318.0,-62.75,-95.0,163.0,0
48.5,-1.25,-14.75,-143.25,-465.25,-81.75,-161.0,235.75,0
82.25,-41.75,-17.75,-60.25,-307.25,-19.25,-236.0,136.75,0
72.0,62.25,-24.25,-119.25,-431.25,-21.5,-171.0,192.75,0
188.25,127.25,-33.25,-238.75,-300.75,-39.25,-15.75,71.5,0
37.25,-1.75,-13.5,-32.0,189.5,-3.5,60.5,-102.25,0
-21.5,-90.0,-30.5,-132.0,-193.0,-42.5,12.25,-33.75,0
101.5,-99.25,-58.0,-213.0,-186.25,2.0,42.0,-71.5,0
-21.5,-92.25,-41.5,1.5,13.5,50.75,-14.25,-52.25,0
2.75,2.75,-43.25,129.25,-26.75,88.5,-104.25,-15.75,0
32.0,-62.75,-46.0,45.75,178.5,175.5,-232.5,-34.0,0
7.0,-97.5,-22.5,62.75,287.0,252.5,-339.25,-116.5,0
-43.75,-37.25,-3.75,83.5,320.75,291.25,-445.5,-171.5,0
-34.75,1.25,-14.0,-127.0,96.0,224.25,-394.5,-211.0,0
8.25,24.75,-22.25,-74.25,127.5,220.25,-195.25,-319.75,0
-42.25,4.0,-4.25,24.25,204.75,230.5,-72.25,-303.0,0
-32.5,14.0,5.75,43.75,91.0,238.5,-3.5,-226.25,0
-4.25,37.75,-29.5,-13.0,93.75,269.0,-20.25,-151.5,0
21.0,107.5,-36.0,-54.0,131.0,207.0,-27.5,-167.75,0
18.5,147.25,-32.25,-90.25,119.75,98.25,-131.5,-242.5,0
33.5,76.75,-28.5,-110.5,-41.25,80.0,-190.25,-158.0,0
145.75,53.0,-54.0,-216.25,-397.25,28.75,-160.5,-2.25,0
242.75,6.25,-73.5,-199.5,-24.5,114.0,-72.75,-165.25,0
-49.5,-85.5,4.25,92.25,501.0,265.25,-41.75,-293.25,0
-49.5,16.5,-17.25,-56.25,-97.0,194.0,-115.0,-219.75,0
62.0,-13.25,-7.25,30.0,121.5,233.75,-73.25,-196.0,0
-55.25,-35.25,25.0,15.75,54.0,155.0,22.0,-9.0,0
61.75,9.5,17.5,-28.25,215.25,147.0,133.25,-100.5,0
-139.75,-107.0,42.25,90.0,358.5,147.25,188.75,39.75,0
10.75,-29.25,-35.25,-42.0,-119.5,115.0,217.25,200.25,0
11.5,-45.0,-12.75,126.25,257.25,197.25,275.25,86.25,0
-47.5,57.75,11.0,60.5,-20.25,103.25,275.75,49.5,0
-1.0,196.75,10.75,150.5,261.5,128.75,277.75,-50.25,0
-105.0,159.5,-13.5,99.75,149.5,82.0,277.25,-39.75,0
-54.25,47.75,-21.75,47.25,102.25,54.75,201.25,-53.25,0
-114.25,-1.25,-5.25,-28.0,80.25,40.75,148.25,83.25,0
28.0,43.25,-36.75,-138.75,211.75,4.25,204.5,39.5,0
-105.5,-64.5,-1.25,18.75,497.25,-56.75,265.75,112.0,0
-55.75,-50.75,-3.25,-10.25,-80.25,-163.0,405.75,178.0,0
-90.0,-98.25,-0.75,113.75,-150.25,-176.25,417.5,61.5,0
-121.25,-113.0,-26.75,-6.5,-549.5,-238.75,288.75,107.0,0
-15.75,-81.5,-8.25,-19.75,-373.25,-136.0,367.25,30.0,0
-124.0,-50.75,-5.75,9.75,-295.5,-23.75,385.75,51.5,0
-71.25,-16.0,7.0,41.0,-287.25,44.25,471.25,24.75,0
-117.25,-35.75,31.25,73.5,8.5,88.5,480.0,-30.25,0
-82.5,-24.25,17.5,54.0,-36.0,87.25,353.75,-120.75,0
-138.5,-104.0,32.75,82.75,-207.75,55.0,318.5,-157.75,0
-102.0,-101.75,17.25,25.5,-456.25,-19.25,218.5,-85.0,0
-81.5,-1.25,29.25,67.75,-496.0,-6.0,200.25,-56.5,0
-138.25,21.5,31.5,68.75,-585.75,7.25,170.5,25.5,0
-102.25,90.25,23.25,14.5,-552.5,-21.75,93.25,72.5,0
-69.75,183.5,-15.0,-95.0,-491.25,-83.0,3.5,46.75,0
-33.75,108.0,-30.0,-9.5,-283.0,-110.0,34.5,-63.0,0
-14.0,103.5,19.75,67.5,-250.0,-137.0,241.75,-53.75,0
9.75,58.5,33.25,7.25,-301.5,-119.5,269.0,38.25,0
-5.0,-80.0,11.5,-35.0,-340.75,-97.5,296.5,85.5,0
23.75,-92.0,-23.0,-82.5,-378.0,-130.5,365.25,64.0,0
39.75,-66.0,-10.5,-84.25,-273.25,-165.0,299.75,23.5,0
48.75,-12.25,10.0,-71.25,-258.75,-197.5,107.0,118.25,0
27.5,49.0,9.25,-60.0,-190.0,-184.5,-4.5,113.75,0
18.75,77.5,10.75,-61.0,-170.0,-159.75,13.75,71.25,0
33.75,-8.75,8.0,-40.0,-59.5,-70.25,-94.0,80.5,0
4.5,-126.75,0.25,-54.75,21.5,-20.0,-125.25,52.5,0
21.75,-140.5,-26.25,-53.75,40.5,15.0,-127.5,-18.0,0
-7.5,-105.0,-14.25,3.75,223.5,101.5,-134.25,2.0,0
-9.75,-58.25,6.25,-191.5,48.5,18.25,13.0,170.5,0
84.5,56.75,-6.75,-252.0,41.25,-26.75,223.75,141.0,0
32.25,23.5,-10.0,-45.25,271.0,-21.25,187.0,123.0,0
-12.25,-71.25,-18.5,-90.0,199.25,-81.75,-15.0,184.25,0
53.25,7.75,-36.75,-88.25,166.0,-117.75,-218.75,292.0,0
88.25,43.25,-29.25,-68.25,234.0,-93.5,-294.25,482.5,0
71.75,67.0,-42.75,-111.75,245.5,-60.5,-280.0,578.0,0
89.25,116.0,-88.0,-157.5,107.75,-69.5,-350.75,509.0,0
144.0,174.75,-79.25,-97.5,112.25,-27.25,-348.5,334.75,0
106.75,136.75,-63.0,-38.75,331.25,-25.75,-214.25,131.5,0
30.0,83.25,-71.0,-86.75,273.0,-17.75,20.0,-9.25,0
69.0,142.75,-75.25,-76.75,-5.75,-9.25,16.5,-148.5,0
108.0,113.25,-56.0,-168.0,-36.5,11.5,23.5,-303.5,0
160.0,100.5,-90.0,-213.25,-93.0,45.75,60.75,-369.25,0
109.75,-6.5,-82.25,-29.25,449.5,121.0,79.25,-469.75,0
-95.0,-156.75,-7.0,149.0,589.0,136.5,99.25,-293.5,0
-26.5,-135.0,-0.5,141.5,158.25,86.0,3.75,-135.25,0
-14.0,-99.25,-2.0,190.25,346.25,101.0,29.0,-116.5,0
-94.25,-49.0,-5.5,213.25,353.75,40.75,32.25,3.25,0
-63.0,8.75,-20.75,116.0,208.25,12.5,0.0,64.25,0
-33.75,111.75,8.0,137.5,165.0,37.25,-16.75,114.0,0
-54.75,84.0,24.75,82.75,96.5,46.25,-11.0,140.5,0
-4.5,50.25,-30.75,-217.25,-89.5,57.0,-15.75,126.75,0
-5.5,13.25,-30.25,-215.5,270.25,113.5,-30.25,-37.75,0
-110.25,-21.75,0.5,-60.25,50.5,68.75,-104.5,-25.75,0
-4.75,55.0,23.75,23.0,-192.0,42.5,-175.75,-44.0,0
-30.5,42.0,49.75,98.5,-27.0,45.5,-236.0,-71.0,0
-1.0,86.75,14.75,40.0,-211.0,-7.25,-293.5,-36.5,0
-2.5,25.75,18.5,109.75,101.25,5.25,-263.25,-76.5,0
-88.5,-91.75,11.5,49.25,-66.5,-36.0,-285.25,73.5,0
5.5,-96.5,-31.0,78.75,-105.75,-0.5,-255.0,97.25,0
-24.25,-178.5,-21.25,175.75,88.25,23.5,-220.5,65.0,0
-38.5,-273.5,-24.25,8.25,-30.25,-9.0,-173.0,110.25,0
0.5,-204.75,-44.0,-117.75,-55.25,-33.25,-110.25,110.5,0
-2.25,-49.25,-7.75,-149.5,194.0,-24.0,-72.75,58.25,0
-43.5,-28.0,5.25,-136.25,304.5,-26.0,-89.75,2.0,0
-8.0,-22.0,-14.0,-146.5,293.5,-89.25,-127.5,-32.5,0
-3.25,-23.0,-2.0,-70.25,546.75,-89.25,-147.0,-55.25,0
-7.75,-25.25,-8.0,-40.25,445.5,-99.0,-264.25,-97.25,0
26.25,-8.25,-31.0,-35.0,578.25,-45.5,-247.75,-114.0,0
20.75,-10.5,-30.25,-99.25,677.5,-5.5,-141.75,-38.75,0
30.0,20.25,-12.0,-99.25,927.25,55.25,-44.5,18.0,0
-61.0,-37.75,-4.5,-77.25,882.5,44.5,-6.75,144.5,0
38.75,-9.75,-29.25,-120.75,616.75,-18.75,-61.5,107.0,0
39.0,45.25,-11.0,58.5,759.25,1.0,-148.75,103.0,0
138.0,133.0,-37.0,-235.75,-12.25,-103.25,-133.75,199.75,0
338.75,219.75,-56.5,-322.25,227.0,-7.5,102.75,63.5,0
144.75,133.25,-32.75,-142.5,900.5,127.75,235.75,10.0,0
10.25,25.25,-3.5,41.0,1300.0,214.0,250.5,-139.25,0
-160.5,-41.25,24.75,229.25,1256.0,167.5,252.5,-81.0,0
5.5,68.5,-36.0,-44.5,775.25,28.25,345.25,-40.75,0
-13.0,23.75,13.5,111.25,1312.0,71.5,502.75,-181.5,0
-170.25,-101.5,40.0,132.5,976.75,-70.0,475.5,26.0,0
20.5,-36.25,2.25,-29.0,534.25,-187.5,326.75,124.0,0
60.0,-8.0,-6.5,-54.75,406.25,-226.25,231.5,138.0,0
83.75,54.0,-4.0,-39.25,470.5,-173.5,101.75,124.5,0
-8.0,67.0,22.25,0.5,415.0,-67.0,28.75,154.25,0
29.5,66.75,-2.25,-47.75,236.75,45.0,72.75,125.5,0
-58.25,15.75,15.0,108.25,569.75,184.0,144.25,28.25,0
-160.5,-36.25,15.0,73.0,225.0,168.25,142.25,129.5,0
23.0,66.5,-15.75,-98.25,-295.5,122.0,114.75,206.75,0
167.75,108.0,-51.75,-206.0,-572.5,80.0,76.0,158.75,0
190.75,17.75,-52.5,-160.25,-428.0,84.0,79.25,50.25,0
141.5,-29.0,-41.5,-146.5,-463.25,57.0,98.75,76.75,0
196.0,31.5,-61.5,-223.5,-712.0,6.5,17.0,203.5,0
247.75,41.75,-65.0,-238.0,-853.0,-29.0,-20.25,355.25,0
349.5,83.75,-95.75,-320.25,-905.75,-91.0,-52.0,435.25,0
452.0,59.75,-112.5,-353.25,-834.5,-179.0,-65.5,389.5,0
467.5,7.0,-106.5,-326.0,-849.0,-256.25,-96.75,312.5,0
382.5,88.75,-87.0,-359.25,-823.0,-242.25,-67.0,199.0,0
297.25,140.25,-70.25,-302.0,-822.5,-208.5,-69.25,103.75,0
290.0,196.0,-77.75,-90.25,-848.5,-108.5,-122.0,-55.5,0
252.5,188.75,-63.0,10.0,-727.5,-5.75,-83.25,-163.0,0
175.0,137.25,-39.75,98.75,-575.75,49.0,-57.75,-160.75,0
65.25,67.25,2.25,75.25,-491.75,86.25,-21.5,-82.0,0
-23.5,-52.0,32.75,-8.75,-384.5,86.75,9.5,65.5,0
-131.75,-171.5,57.75,-1.0,-185.0,131.75,12.25,108.25,0
-231.75,-292.0,94.5,-14.0,1.5,165.75,3.75,118.0,0
-330.25,-297.5,108.0,69.0,192.25,168.5,68.75,103.25,0
-394.5,-275.0,126.5,125.75,283.5,185.5,163.5,39.0,0
-443.25,-220.25,163.0,157.25,320.25,206.75,156.25,17.5,0
-500.25,-165.5,182.0,118.75,286.25,219.0,136.5,3.25,0
-521.25,-142.25,197.0,142.25,305.5,212.75,124.0,-77.0,0
-531.0,-100.25,203.5,141.0,356.25,195.75,108.0,-121.75,0
-530.5,-112.5,180.25,60.25,269.75,197.75,104.5,-101.0,0
-528.0,-108.0,171.0,53.5,201.75,205.0,93.0,-99.25,0
-512.25,-88.75,152.5,130.0,217.25,221.5,151.75,-62.25,0
-506.75,-70.25,155.25,238.5,247.25,208.25,200.5,-56.5,0
-499.75,-69.0,187.0,202.5,260.0,177.25,225.0,-151.0,0
-490.75,-98.0,169.25,206.0,266.0,162.0,206.0,-188.5,0
-470.75,-98.5,167.75,186.75,177.5,142.75,194.5,-240.75,0
-434.25,-96.5,158.75,149.5,115.75,137.5,244.5,-333.25,0
-424.5,-97.75,142.5,121.75,90.0,115.5,231.0,-345.25,0
-392.5,-53.5,107.75,55.5,19.5,78.0,224.5,-318.25,0
-338.0,-31.25,66.75,47.25,-28.5,51.0,190.25,-318.0,0
-264.75,33.0,57.0,221.25,-124.0,51.0,163.25,-377.5,0
-205.25,105.0,51.25,246.5,-245.0,35.5,114.75,-391.75,0
-196.5,29.25,58.0,150.5,-329.75,5.75,60.5,-382.5,0
-180.75,11.75,47.25,215.0,-320.0,-2.75,98.25,-325.25,0
-144.5,19.75,45.0,199.75,-342.25,-28.5,201.0,-220.75,0
-104.25,99.75,48.75,254.75,-397.0,-70.0,243.5,-123.0,0
-54.75,152.5,30.5,191.5,-374.75,-68.25,249.0,-98.25,0
-10.0,115.5,-7.75,144.0,-310.75,-22.5,259.75,-110.75,0
27.5,138.0,-40.5,161.5,-305.0,-5.5,233.25,-50.75,0
70.0,112.0,-74.25,108.25,-346.5,-8.75,183.25,-32.0,0
131.75,104.0,-92.5,85.75,-284.25,4.75,138.75,-11.25,0
176.25,20.25,-93.0,73.5,-189.25,42.5,202.0,-48.0,0
178.0,-19.5,-106.5,90.5,-142.75,38.25,180.75,-99.0,0
178.75,48.5,-108.0,43.75,-194.75,17.0,150.75,-145.0,0
225.5,85.75,-125.0,56.5,-342.0,5.75,127.25,-210.5,0
229.75,89.0,-138.25,23.0,-426.25,6.25,89.75,-210.25,0
214.5,53.0,-135.0,-1.25,-445.5,25.0,79.0,-219.25,0
223.25,5.0,-152.5,-33.5,-437.5,26.25,64.25,-169.25,0
225.5,-24.75,-157.0,-50.75,-398.25,42.0,68.0,-39.25,0
244.0,28.75,-162.75,-48.75,-409.75,26.25,32.0,30.25,0
237.75,34.25,-164.5,-137.25,-410.25,25.5,32.5,67.75,0
225.25,56.75,-169.75,-72.5,-302.0,42.5,-1.5,98.75,0
215.25,78.75,-173.75,-31.0,-221.75,54.5,-26.75,87.25,0
205.75,23.75,-165.25,-74.0,-200.75,71.5,-50.5,70.0,0
199.5,4.0,-145.5,-64.5,-198.0,41.5,-56.0,45.75,0
176.75,-21.0,-114.25,-4.0,-212.0,20.5,-27.0,46.0,0
158.25,1.25,-106.25,-35.75,-251.5,31.75,-56.75,67.75,0
149.5,4.75,-94.75,-110.5,-275.5,60.25,-65.75,122.75,0
130.25,-11.5,-91.0,-57.0,-305.0,30.75,-41.25,114.0,0
100.75,2.25,-82.25,-7.0,-357.25,-14.25,-58.5,100.75,0
96.0,-20.25,-92.75,-7.0,-326.75,-17.5,-110.25,78.0,0
92.5,15.25,-89.75,6.25,-234.5,-71.5,-97.0,-11.5,0
85.5,86.75,-63.25,-17.5,-183.75,-109.5,-137.5,-15.25,0
71.25,74.5,-52.0,-103.0,-246.0,-52.25,-164.75,99.5,0
63.25,90.0,-51.75,-150.25,-293.0,-15.5,-153.5,219.75,0
71.25,74.75,-52.25,-103.75,-342.25,28.25,-120.5,209.75,0
33.25,-4.75,-29.75,-71.5,-377.5,52.5,-66.25,182.5,0
26.5,-49.75,-25.25,-78.5,-350.0,14.5,-73.25,141.25,0
36.25,-115.75,-19.5,-77.75,-333.0,2.5,-55.5,94.75,0
21.25,-97.5,-14.75,-86.25,-269.75,-34.5,-73.25,63.25,0
21.5,-21.0,-9.75,-69.5,-238.25,-39.0,-67.5,57.0,0
-0.75,42.5,-14.75,-65.75,-198.25,-45.75,-42.75,106.25,0
7.75,51.5,-22.0,-93.75,-69.25,-35.5,-38.75,115.75,0
15.25,10.0,-34.5,-124.5,18.0,6.0,-44.5,124.25,0
12.0,-25.5,-63.25,-118.25,45.5,23.5,-60.5,168.25,0
39.0,-63.5,-79.25,-90.5,127.5,59.0,63.25,191.0,0
78.5,-66.75,-128.25,-141.5,256.75,74.25,217.5,162.0,0
146.25,-84.75,-153.5,-135.75,349.0,87.75,163.75,131.0,0
192.75,-173.25,-133.75,-63.25,332.75,98.5,37.75,82.75,0
250.5,-136.5,-160.75,-45.5,347.0,92.75,-121.0,12.0,0
305.75,16.5,-173.75,-69.25,407.5,77.25,-270.25,-110.5,0
316.25,5.5,-193.75,-101.5,383.5,63.25,-220.5,-227.25,0
329.0,-17.75,-215.25,-138.5,270.75,38.25,-222.75,-195.5,0
328.0,0.5,-186.75,-186.5,113.5,25.75,-246.75,-96.25,0
353.5,4.75,-186.25,-94.25,-23.5,18.5,-174.5,-26.0,0
362.25,84.5,-192.25,34.5,-172.5,13.75,-87.5,10.0,0
363.25,158.0,-180.5,100.0,-274.5,2.75,6.5,57.0,0
367.5,168.5,-186.25,178.5,-325.5,11.25,254.0,67.0,0
342.75,190.75,-158.0,116.0,-423.5,11.75,395.5,-74.0,0
328.0,227.5,-146.5,72.75,-500.5,-13.5,337.0,-257.5,0
273.0,199.25,-126.25,19.25,-517.25,-5.75,380.5,-373.5,0
134.5,146.5,-52.75,19.75,-390.5,35.0,436.0,-478.75,0
-133.0,107.75,12.25,137.25,24.0,128.5,411.25,-634.25,0
-654.75,19.25,149.25,399.5,546.75,299.25,377.25,-633.5,0
-997.5,7.5,267.25,596.75,505.5,385.0,484.5,-444.75,0
-996.75,101.25,282.0,544.25,338.0,307.0,450.5,-303.0,0
-888.5,64.25,288.25,583.25,249.5,208.5,369.5,-205.5,0
-860.25,-80.25,274.5,431.25,-136.25,110.25,396.75,-72.5,0
-707.75,-189.0,264.75,283.0,-332.5,24.75,323.25,3.5,0
-614.75,-297.75,254.75,233.0,-389.0,-30.0,217.0,41.0,0
-565.25,-374.25,235.0,129.25,-431.25,-81.0,71.5,45.5,0
-522.75,-386.0,237.75,73.5,-450.25,-92.0,-28.25,52.75,0
-459.0,-307.75,214.0,-38.0,-621.5,-95.25,-102.0,80.0,0
-355.0,-146.75,196.25,-97.5,-666.75,-121.5,-159.0,158.75,0
-285.0,5.5,161.25,-154.0,-673.75,-124.75,-247.5,258.75,0
-202.0,83.5,128.5,-166.5,-465.0,-112.75,-409.0,247.75,0
-206.5,51.0,130.0,-119.5,-291.75,-97.0,-506.25,229.75,0
-199.0,28.75,136.75,-99.5,-305.25,-79.25,-427.25,347.25,0
-160.5,46.75,124.75,-265.75,-322.5,-104.25,-291.25,422.0,0
-61.75,36.75,83.25,-364.75,-306.75,-99.5,-248.25,389.5,0
-42.25,47.0,83.5,-271.25,-368.25,-81.0,-323.25,373.5,0
-1.5,37.75,58.0,-294.75,-538.5,-105.75,-442.75,399.5,0
50.25,7.5,30.75,-346.0,-708.5,-94.25,-498.75,372.5,0
57.75,-3.0,10.75,-379.75,-565.75,-72.25,-474.75,328.25,0
79.75,38.0,-1.5,-278.25,-223.25,-45.5,-433.5,345.0,0
55.75,71.75,24.0,-251.0,-63.0,-37.0,-534.0,347.75,0
103.0,68.75,-4.25,-308.5,237.5,-52.25,-560.25,319.5,0
83.5,100.0,-3.75,-284.75,466.0,-35.5,-460.75,283.0,0
112.0,117.0,0.25,-282.5,684.75,-63.0,-416.0,231.75,0
138.5,181.75,-9.0,-230.0,720.5,-77.75,-409.0,213.75,0
137.75,190.75,-10.0,-251.75,445.25,-75.75,-367.5,229.0,0
158.0,126.5,-35.75,-262.5,296.5,-77.75,-351.5,220.5,0
143.5,33.75,-45.25,-277.25,75.5,-111.5,-319.0,228.75,0
169.5,-22.25,-43.25,-228.25,40.5,-131.0,-226.25,218.5,0
142.5,-17.25,-32.5,-150.75,179.75,-56.25,-205.5,186.75,0
150.5,-6.0,-40.75,-149.5,334.75,-11.75,-178.25,160.5,0
142.5,40.5,-50.75,-142.75,442.0,14.75,-133.5,118.0,0
136.5,63.5,-42.0,-188.25,452.25,5.75,-19.25,144.75,0
217.0,101.0,-62.25,-223.75,478.0,7.25,8.75,128.5,0
179.75,63.25,-59.25,-150.0,746.5,37.5,-36.25,7.25,0
76.25,-17.0,-44.25,-105.0,815.5,30.0,-26.25,-0.5,0
118.75,-35.0,-51.75,-165.25,610.75,4.75,8.25,43.0,0
135.5,-16.5,-54.5,-144.75,596.5,-11.0,21.0,50.5,0
128.5,22.5,-39.25,-59.25,569.25,20.5,38.5,45.5,0
94.0,-31.25,-44.0,-20.0,600.0,39.75,98.75,29.5,0
71.5,-33.5,-60.5,-51.0,501.5,34.25,67.0,19.25,0
97.75,41.0,-53.25,-32.75,576.0,53.75,90.75,-9.25,0
70.5,46.75,-40.25,-27.25,545.5,54.75,122.25,18.25,0
63.5,20.75,-31.75,-37.75,391.0,57.25,94.0,-19.5,0
54.0,29.5,-19.75,4.25,330.5,45.75,73.25,-29.5,0
90.25,-12.0,-11.5,-60.75,218.5,47.5,118.0,30.0,0
87.5,-85.25,-26.0,-97.75,222.25,66.75,243.25,53.25,0
62.5,-126.25,-12.25,-25.75,325.25,76.5,276.0,50.75,0
-8.0,-151.0,-1.5,40.25,450.5,99.5,249.0,-27.75,0
-42.25,-112.0,-3.25,66.25,371.5,123.75,217.75,-83.0,0
-26.5,-79.5,-8.75,73.5,334.25,119.25,231.5,-112.75,0
-24.5,-86.25,-16.25,36.75,314.75,94.5,313.5,-158.25,0
33.25,-74.0,-17.0,62.25,281.0,90.75,351.25,-209.25,0
43.5,-6.0,-20.25,67.75,250.25,64.0,355.25,-78.0,0
61.75,40.5,-4.5,10.5,209.0,34.5,303.25,-5.0,0
40.0,6.0,-11.5,91.25,313.25,30.75,199.25,-73.25,0
-10.75,-36.5,-4.75,159.5,290.0,28.5,144.75,22.0,0
16.25,-48.0,-6.25,72.0,80.25,13.5,135.25,23.5,0
24.75,-120.75,-12.5,56.0,10.5,23.0,114.75,-34.5,0
8.75,-64.5,-13.75,71.75,15.25,35.75,110.25,-17.5,0
-7.75,17.25,-0.75,72.25,18.25,46.5,231.25,-6.0,0
7.0,-8.25,11.25,29.25,-42.0,35.25,299.0,-51.0,0
68.5,60.5,-14.0,-26.75,-45.75,36.5,297.75,-86.75,0
63.0,66.0,-9.25,7.0,113.5,60.5,328.5,-157.0,0
-10.75,70.75,19.0,74.5,317.0,48.0,298.25,-207.75,0
-44.25,73.0,18.0,39.25,196.0,-8.75,253.25,-84.0,0
25.5,40.75,-15.25,-91.0,-21.5,-58.75,182.25,-31.75,0
63.75,24.0,-13.75,-69.5,253.5,5.25,210.75,-21.0,0
-24.0,-38.25,-5.0,20.75,484.5,36.0,237.75,24.0,0
-52.25,-36.75,-10.25,-24.0,386.0,-9.5,204.5,34.0,0
-11.5,-2.0,-18.0,-21.75,385.25,3.5,254.25,14.25,0
-24.5,6.25,-6.0,21.0,451.5,35.0,202.0,2.25,0
-20.75,4.75,4.0,0.0,451.75,30.75,175.25,-24.75,0
-40.0,-2.0,-12.0,39.0,437.75,25.0,175.25,-49.5,0
-30.5,22.75,-10.0,-14.0,362.75,27.5,76.75,-31.0,0
-6.75,19.5,-12.25,19.25,377.75,33.75,-0.5,33.75,0
-21.0,4.0,8.0,64.0,369.0,34.25,30.0,93.25,0
-16.5,13.0,14.25,-18.5,325.0,44.75,96.25,105.0,0
-52.25,-7.25,6.75,1.5,315.0,49.75,101.0,123.75,0
-45.25,-2.0,7.25,29.0,178.25,26.5,138.75,54.5,0
-37.75,-4.25,-35.75,-47.5,111.25,36.0,131.25,60.5,0
-29.25,-6.75,-79.25,-71.0,39.75,31.25,144.0,27.0,0
-32.75,-24.25,-18.25,228.5,161.75,56.75,103.5,-108.5,0
-83.75,-34.75,28.5,173.5,158.0,48.25,15.5,-70.75,0
-12.0,-7.0,-16.0,-49.5,36.25,23.75,58.25,-48.5,0
-18.5,-13.0,-8.5,89.75,56.0,70.5,208.0,-8.75,0
-83.5,-6.75,-1.25,79.5,-146.75,50.5,324.75,53.5,0
-52.75,15.5,0.25,61.0,-363.0,38.5,229.75,43.0,0
-2.75,64.25,-9.5,9.25,-495.0,36.75,115.25,26.75,0
-4.0,95.25,-3.0,47.25,-415.25,51.75,72.25,52.75,0
-6.0,53.0,10.0,73.5,-455.25,36.25,0.75,64.5,0
20.0,12.0,-27.25,25.5,-472.0,14.75,-112.75,47.75,0
11.5,-26.75,-29.0,-9.75,-394.5,18.25,-193.75,81.75,0
2.0,-76.5,-27.75,-86.75,-295.5,4.75,-232.75,62.75,0
-10.75,-138.0,-7.5,-42.0,-234.75,14.75,-231.0,73.0,0
22.25,-172.25,-1.25,-108.5,-183.75,24.25,-136.75,78.0,0
18.75,-103.5,-8.5,-144.5,-107.5,39.5,-108.25,79.75,0
16.5,2.75,3.25,-22.25,-61.25,47.75,-64.25,63.75,0
-19.5,36.75,20.75,48.5,141.0,59.0,24.5,20.25,0
-63.5,30.75,12.5,2.0,-68.5,9.25,4.75,80.25,0
11.75,46.75,-17.0,-90.25,-340.75,-22.0,-10.25,114.5,0
69.5,87.5,-30.0,-186.25,-613.5,-34.5,-51.25,220.25,0
191.25,137.0,-69.5,-255.0,-881.0,-21.25,-69.25,273.75,0
172.25,86.25,-59.25,-129.25,-308.0,86.5,-56.75,101.75,0
-25.0,-13.0,-16.25,17.25,38.0,117.5,-122.75,55.25,0
-19.0,-5.25,-11.25,32.25,-212.25,73.75,-4.75,100.0,0
28.5,-22.5,-6.5,134.5,-125.5,63.25,181.5,93.5,0
8.5,-78.75,-0.75,181.75,12.75,54.25,184.75,32.0,0
-19.0,-60.75,6.75,77.25,159.75,58.0,170.25,-43.75,0
-60.0,-6.0,15.75,18.5,279.75,64.25,138.25,-64.5,0
-64.5,-9.0,14.5,-44.5,139.5,66.75,80.75,-89.75,0
-42.0,-6.0,2.0,-110.75,70.5,57.75,7.25,-108.75,0
-36.5,1.75,20.0,-93.75,116.5,56.0,-46.0,-137.0,0
-66.75,8.0,31.0,-46.25,120.0,51.5,-67.75,-142.0,0
-51.75,85.25,14.25,-29.25,-21.75,42.25,-150.25,-106.0,0
24.25,112.25,-5.25,-50.25,-71.5,30.5,-182.25,-85.5,0
26.0,77.5,-11.5,-25.75,89.0,27.0,-201.5,-36.5,0
8.0,92.0,-14.0,-23.25,173.25,57.5,-129.75,23.0,0
-22.75,63.25,-2.0,51.75,324.0,86.0,28.75,-6.5,0
-124.75,3.75,31.25,132.25,428.25,99.75,97.5,-67.75,0
-130.75,-20.25,27.25,83.25,271.75,65.0,128.25,-67.75,0
-47.5,-50.0,1.75,-8.25,-29.0,17.5,165.5,-16.5,0
37.75,-70.5,-19.0,-103.0,-378.5,-13.25,178.25,10.25,0
67.25,-143.0,-15.5,-107.5,-218.25,12.25,181.25,-21.75,0
3.25,-153.5,-2.5,-33.5,195.75,69.5,179.25,-125.75,0
-116.5,-27.25,18.5,94.75,410.75,97.25,97.25,-255.5,0
-180.75,71.5,29.5,103.25,621.25,58.0,-17.5,-164.25,0
-52.25,34.5,-9.25,-60.25,206.5,-25.5,-137.75,-44.5,0
8.75,-28.75,-8.75,-57.25,-104.5,-22.25,-16.0,-41.0,0
-39.0,48.5,-12.25,3.5,27.25,2.75,223.25,-34.25,0
-104.25,93.0,-8.5,68.5,169.0,37.25,189.25,-113.75,0
-213.0,26.25,25.25,131.25,272.75,26.0,178.25,-107.5,0
-162.5,-40.75,10.0,65.0,59.75,-24.5,183.75,-50.5,0
-44.25,-82.0,-16.0,-31.25,-65.5,-64.0,119.0,17.25,0
30.75,9.75,-33.5,-82.0,-73.75,-68.75,15.5,-15.25,0
23.75,13.75,-25.5,-45.25,-102.5,-40.5,-139.75,-133.75,0
-24.5,-60.5,-21.25,42.25,41.25,9.5,-196.0,-161.75,0
-126.5,-13.75,5.5,180.25,219.25,47.25,-109.25,-124.5,0
-111.0,-59.0,0.75,96.25,-89.0,-13.0,-48.75,-29.0,0
3.0,-61.75,-33.25,-29.5,-327.5,-30.25,-58.0,68.0,0
52.25,37.0,-51.5,-79.5,-472.75,-69.0,-80.5,177.0,0
114.75,50.5,-58.5,-121.0,-319.5,-53.0,-119.75,139.0,0
13.5,-28.0,-34.0,-22.5,108.5,-11.5,-96.25,92.5,0
-55.25,-63.75,-28.25,11.5,299.75,1.0,-110.5,28.0,0
-69.25,-54.75,-19.0,11.75,333.75,7.75,-81.25,-44.5,0
-30.0,-26.0,-23.75,-25.0,123.5,-20.75,24.25,-15.25,0
-5.5,19.75,-11.0,-63.75,140.5,22.5,97.25,-12.25,0
-37.5,13.75,-2.0,-131.75,168.5,30.0,96.25,-7.75,0
-27.0,20.75,11.5,-75.25,196.25,33.25,22.75,-20.0,0
-48.5,-1.75,12.75,30.5,201.25,24.75,37.0,31.75,0
-25.75,11.0,1.0,-10.25,77.75,-16.0,52.5,97.75,0
6.5,11.5,-9.5,27.25,51.0,-34.25,29.0,106.75,0
21.25,4.75,-30.5,-3.5,105.75,-39.75,75.25,126.25,0
24.25,31.25,-10.5,-38.75,176.25,-31.0,170.5,117.5,0
0.5,4.25,-1.25,7.5,280.75,-29.75,251.25,85.75,0
2.5,20.5,0.25,-32.25,312.0,-17.25,161.0,61.75,0
13.5,25.5,-0.25,-37.75,288.75,-18.5,-34.75,-13.0,0
3.75,-4.75,2.5,-19.5,191.75,-14.5,-171.5,-81.75,0
0.75,-7.5,-8.25,-28.25,109.25,23.0,-295.25,-86.5,0
-27.5,-3.75,-6.25,63.5,188.0,24.5,-347.5,-36.75,0
-44.5,19.0,8.25,74.25,165.75,14.75,-296.25,15.0,0
-39.25,42.75,-16.25,47.75,171.25,18.75,-179.0,76.0,0
-31.5,54.5,-21.0,13.75,107.25,4.25,-134.25,199.75,0
8.5,78.75,-21.25,-74.0,10.25,-11.25,-97.5,201.5,0
12.0,50.75,-35.0,-45.25,47.25,-13.5,-96.5,156.0,0
8.0,-39.25,-13.0,31.75,52.75,5.0,-153.25,123.25,0
-8.75,-37.75,8.5,39.5,4.0,-7.75,-37.25,61.75,0
4.5,-11.0,0.75,-47.0,1.5,-16.5,91.5,-17.5,0
13.25,-71.25,2.0,-48.5,128.0,7.5,125.75,-99.25,0
-44.25,-54.75,12.5,25.75,294.5,50.25,179.75,-154.25,0
-86.0,21.75,13.25,36.75,316.75,84.0,166.0,-120.75,0
-49.25,112.0,1.0,-2.25,197.0,70.5,152.75,-21.75,0
-11.25,210.75,-7.75,-29.75,106.75,66.0,180.5,-12.25,0
-16.5,206.5,-16.75,-29.0,20.5,83.0,142.25,56.75,0
10.75,137.25,-17.75,-65.25,-100.5,77.5,58.25,87.5,0
57.75,58.0,-36.5,-93.25,-188.0,51.5,-87.75,43.0,0
60.25,-56.25,-38.75,-77.25,-68.5,21.75,-255.25,23.0,0
21.5,-183.0,-38.75,-44.0,56.5,-16.25,-261.75,-13.0,0
-2.5,-260.75,-30.5,-29.75,35.75,-81.25,-173.75,-18.0,0
12.25,-190.0,-13.5,-58.25,-93.75,-133.25,-70.5,-86.75,0
43.75,-54.25,-27.25,-99.0,-199.5,-130.75,150.5,-46.25,0
57.75,8.5,-61.5,-118.25,-187.75,-97.0,263.25,44.5,0
61.0,66.25,-72.0,-166.25,-215.0,-53.25,212.25,85.25,0
21.0,48.25,-31.75,-129.75,-170.5,-13.25,179.0,90.0,0
-18.25,34.5,-14.25,18.25,-105.75,13.75,46.75,-34.25,0
14.5,44.25,-11.75,-18.5,-79.5,24.5,-80.5,-46.5,0
36.75,13.25,-24.75,-67.5,0.0,42.5,-138.75,23.5,0
33.75,8.25,-20.0,-42.5,-60.0,42.0,-142.5,102.5,0
57.0,25.0,-9.25,-95.25,-120.75,38.0,-59.5,101.0,0
62.25,31.75,-22.0,-91.75,-94.0,44.5,89.75,47.25,0
52.5,-23.0,-9.5,-81.25,-86.75,71.75,165.5,14.75,0
2.25,-28.0,-21.75,-19.25,-117.25,67.0,74.25,66.75,0
56.75,16.5,-24.0,-19.25,-364.5,-7.5,28.5,165.25,0
162.75,54.75,-20.0,-67.5,-320.5,0.75,58.75,67.5,0
50.75,15.0,-9.5,24.0,158.75,73.5,65.25,-96.75,0
-123.5,-1.25,22.75,117.75,547.25,114.25,-54.75,-201.5,0
-199.25,7.0,36.0,103.75,467.75,123.25,-151.75,-66.0,0
-158.75,8.0,31.25,18.5,146.0,97.75,-53.0,20.5,0
-78.25,36.25,-9.0,-10.75,-18.25,96.25,32.5,36.25,0
-14.75,21.75,-17.25,-23.75,-127.25,125.25,19.5,142.25,0
32.75,52.0,-8.0,-49.0,-184.75,90.0,-19.0,130.0,0
59.0,37.5,-24.75,-23.5,-169.25,74.25,-43.75,111.75,0
-1.75,-12.0,-14.25,10.5,12.0,111.75,48.0,42.75,0
-53.5,-85.5,-0.25,19.75,123.0,122.5,123.0,20.5,0
-50.75,-141.5,8.75,42.0,163.0,123.5,142.25,20.0,0
-71.5,-57.25,19.75,11.0,129.25,93.75,105.5,33.75,0
-37.25,16.0,-8.5,-140.25,-37.5,60.5,27.25,101.25,0
15.0,48.0,-26.0,-230.75,-217.75,40.25,30.75,135.0,0
57.0,53.75,-18.25,-154.5,-269.5,22.5,2.0,102.5,0
48.75,-5.25,-29.75,-48.0,-167.0,11.75,-8.25,23.75,0
36.5,0.0,-15.5,85.25,-157.75,-46.5,1.75,83.25,0
105.5,55.0,-29.25,64.25,-263.25,-75.25,37.75,192.5,0
208.0,73.75,-46.25,-60.0,-313.5,-57.0,118.5,153.25,0
110.25,35.75,-3.5,-48.75,-24.5,1.0,123.25,0.5,0
-48.5,-1.25,6.5,-62.25,-16.5,45.25,54.5,94.75,0
83.5,6.75,-15.75,-149.5,-262.75,44.25,-35.5,145.75,0
112.25,-23.5,-14.5,-156.75,-146.5,76.5,-97.5,43.75,0
48.0,-35.5,14.75,-96.25,-58.0,92.0,-117.0,34.25,0
-25.0,-31.75,38.5,-18.5,75.0,99.0,-141.25,-64.25,0
-96.75,-8.5,25.75,40.25,56.5,71.75,-128.25,-5.75,0
33.0,39.0,-0.75,9.5,-123.25,52.25,-55.0,28.5,0
67.75,66.0,-6.25,10.25,-2.0,76.25,-14.75,-84.75,0
-68.0,61.5,5.25,47.25,194.75,89.25,29.0,-122.25,0
-166.25,29.75,24.25,85.5,402.0,125.5,47.0,-233.75,0
-381.25,-72.25,70.5,252.25,732.75,170.5,83.75,-306.0,0
-486.5,-170.25,81.75,313.0,646.0,130.0,82.25,-244.75,0
-388.25,-187.5,71.75,273.0,540.75,98.25,79.0,-234.25,0
-384.25,-175.0,72.25,285.0,449.0,37.75,117.25,-171.75,0
-263.5,9.0,46.5,209.5,213.75,3.75,119.75,-80.0,0
-181.0,150.75,25.5,137.5,97.25,-2.5,102.5,-59.5,0
-145.25,179.25,21.5,159.0,-13.0,-63.5,147.75,-68.5,0
-91.25,178.0,12.25,102.75,-39.75,-58.75,137.0,-75.25,0
-67.0,63.0,-6.5,51.0,-69.0,-51.0,30.75,-19.0,0
-59.75,-24.75,-12.25,37.0,-72.25,-71.5,32.75,65.25,0
-65.5,-65.5,-26.5,12.75,-115.5,-78.5,77.0,52.5,0
-49.25,-117.25,-18.5,37.75,-71.0,-64.75,125.25,13.25,0
-64.25,-202.25,-17.0,8.5,-44.0,-40.25,157.0,25.0,0
-38.5,-186.25,-35.75,-19.5,-142.0,-57.0,111.75,61.5,0
7.0,-50.75,-32.0,-22.0,-239.75,-68.25,52.75,107.0,0
11.25,1.25,-22.0,-8.75,-252.5,-63.0,39.5,115.25,0
13.25,-9.0,-21.5,-38.5,-194.75,-61.0,75.75,132.0,0
46.5,-15.0,-31.5,-58.25,-206.75,-37.75,172.5,144.25,0
72.5,-13.25,-32.5,-69.5,-262.5,-18.75,175.0,124.0,0
81.25,11.0,-30.75,-90.5,-344.25,11.0,104.25,90.25,0
88.5,28.5,-28.25,-125.25,-469.75,55.75,56.75,54.0,0
123.0,28.5,-31.0,-155.25,-543.0,73.25,20.25,70.25,0
150.0,34.0,-32.75,-141.5,-569.5,73.0,-12.0,126.0,0
204.5,36.25,-47.0,-218.25,-682.25,90.25,-51.75,238.0,0
271.75,47.75,-57.75,-260.25,-564.0,125.25,-57.25,282.25,0
226.25,68.0,-52.0,-248.0,-310.5,144.75,-22.0,227.0,0
142.0,64.5,-48.5,-211.0,-198.25,150.25,17.0,199.75,0
98.25,60.25,-44.75,-117.25,-125.75,138.0,20.5,156.75,0
78.75,49.0,-43.25,-102.5,-64.0,121.25,29.0,55.75,0
60.5,28.25,-41.75,-114.25,-127.25,94.25,13.0,-19.25,0
138.25,45.5,-53.25,-116.5,-355.5,51.75,7.0,-5.75,0
212.5,50.0,-51.5,-159.0,-334.25,42.75,25.5,25.5,0
190.5,34.0,-42.0,-176.0,-103.0,74.5,34.5,-41.75,0
121.25,13.5,-31.75,-81.5,215.0,168.0,55.75,-185.75,0
-51.0,-21.25,2.25,4.5,288.25,236.75,71.25,-147.5,0
-87.5,-18.25,9.25,16.5,270.75,276.25,111.75,-109.75,0
-147.5,-25.0,9.75,52.75,378.5,299.75,117.5,-20.0,0
-97.75,-4.0,-0.75,-38.75,242.25,265.75,39.25,139.0,0
-20.25,17.25,6.25,-3.25,293.5,277.25,1.5,151.0,0
-83.25,15.75,14.75,45.75,236.0,273.5,-38.25,183.0,0
-39.25,21.75,5.25,25.0,232.25,299.5,-32.75,122.25,0
-88.0,19.25,17.5,47.25,214.0,332.0,-44.0,132.75,0
-42.75,36.75,13.0,11.5,119.25,366.0,-126.0,61.25,0
-41.5,22.5,4.25,30.5,226.25,410.75,-171.0,-87.75,0
-83.0,3.75,1.5,53.5,219.5,406.25,-128.25,-146.25,0
-79.75,-15.5,-0.5,105.0,248.0,422.0,-18.75,-183.5,0
-117.0,-16.75,10.75,94.5,250.0,396.5,-12.25,-113.25,0
-125.75,18.25,5.75,-16.5,352.25,368.5,10.5,-76.0,0
-149.75,69.75,-0.5,-108.75,370.25,319.0,68.5,-99.75,0
-145.0,66.75,-8.75,-18.0,282.75,236.75,173.5,-106.0,0
-120.25,19.75,4.0,121.5,268.0,174.75,142.0,-82.75,0
-81.75,1.5,18.75,111.75,195.0,152.75,15.5,-73.75,0
-59.75,-24.25,5.25,81.75,134.25,94.25,2.0,-31.0,0
-38.25,-81.25,8.25,54.5,49.5,-47.5,-36.75,-5.5,0
-22.5,-123.0,5.25,51.0,-30.75,-162.5,-95.75,-6.0,0
14.75,-112.75,-3.25,7.75,-94.0,-210.75,-192.25,7.75,0
57.75,-49.25,-12.25,-12.5,-135.0,-182.25,-206.5,11.0,0
50.0,12.75,-11.0,-30.0,-54.25,-165.5,-130.0,-10.75,0
8.5,35.0,8.0,-22.25,20.25,-199.25,-52.25,5.75,0
-6.5,6.0,16.0,-37.75,-13.75,-203.75,-26.25,28.0,0
29.5,-51.0,-10.75,-95.5,-17.25,-192.0,-5.5,7.0,0
42.75,-75.0,-9.5,-43.0,-22.0,-167.75,17.0,19.75,0
58.75,-66.75,-12.0,-38.75,-70.75,-175.0,-11.0,40.75,0
61.0,-37.5,-19.75,-44.75,-52.0,-177.0,-8.0,52.5,0
35.5,-30.75,-13.5,-20.5,-11.5,-185.25,-49.0,52.0,0
31.5,-39.0,-18.5,-39.75,0.5,-219.0,-56.0,46.5,0
11.75,0.5,-6.25,-53.75,-25.25,-259.5,-48.5,17.0,0
-21.25,2.25,-20.0,-36.0,-47.75,-284.25,-61.75,-46.25,0
-32.25,6.5,-13.75,-12.25,17.25,-287.75,-78.75,-80.5,0
-78.25,10.25,-8.0,19.75,39.5,-319.5,-98.75,-98.5,0
-137.0,1.25,1.25,60.25,15.0,-337.0,-71.0,-109.5,0
-152.75,-1.0,21.0,60.5,49.25,-323.75,-5.5,-114.75,0
-167.25,0.0,5.75,71.5,123.0,-315.25,37.75,-108.75,0
-157.25,23.5,14.0,65.0,148.25,-313.5,30.5,-78.5,0
-132.0,50.25,11.0,50.25,84.25,-305.75,42.0,-54.75,0
-121.75,92.0,12.5,61.75,13.25,-319.5,72.25,-68.0,0
-175.75,0.0,17.0,72.5,66.75,-303.5,123.0,-81.5,0
-186.75,-38.25,11.25,70.25,96.25,-308.5,107.5,-74.25,0
-148.25,28.5,8.75,59.0,96.75,-310.5,67.5,-46.0,0
-110.75,46.0,0.75,51.0,65.0,-296.5,71.25,-13.5,0
-70.5,12.25,-7.5,49.0,15.25,-302.25,46.25,-3.5,0
-63.5,16.25,-13.0,12.25,-37.25,-285.5,15.0,6.75,0
-20.25,73.5,-5.0,-21.0,-119.5,-272.5,-29.75,-5.75,0
-10.25,88.75,-20.75,-32.5,-164.25,-258.5,-9.25,0.25,0
14.75,51.75,-24.25,-75.5,-205.75,-261.25,58.5,28.75,0
37.0,16.75,-14.75,-68.25,-211.0,-249.0,49.5,69.25,0
69.25,39.25,-15.5,-82.5,-227.75,-250.0,70.5,151.5,0
86.0,-16.5,-2.5,-76.5,-192.5,-257.0,69.0,179.25,0
86.5,-49.75,-12.5,-65.0,-162.25,-245.0,14.75,150.5,0
95.75,-15.25,-7.25,-88.0,-150.75,-244.0,10.25,93.5,0
70.75,-18.5,17.5,-49.75,-134.75,-223.75,-14.0,28.0,0
64.75,12.5,18.25,-59.5,-163.25,-232.75,1.25,2.25,0
73.0,27.75,19.25,-92.75,-212.25,-255.0,-9.25,23.5,0
112.0,48.25,4.0,-161.75,-226.5,-262.75,-56.5,53.25,0
104.75,66.0,-31.75,-205.0,-176.75,-262.25,-41.25,43.0,0
95.75,55.5,-39.75,-135.5,-151.75,-256.5,-20.5,27.25,0
82.25,20.25,-29.25,-108.75,-117.75,-223.5,2.0,41.75,0
71.75,-24.5,-22.25,-124.5,-89.0,-203.0,35.0,38.25,0
63.5,-53.25,-19.5,-80.5,-37.75,-167.0,62.75,1.75,0
56.5,-51.25,-23.5,-92.0,-55.25,-127.75,44.25,-8.5,0
81.5,-50.0,-29.0,-52.75,-49.75,-84.25,42.75,9.25,0
77.0,-66.5,-27.0,-27.5,-13.25,-38.75,55.75,17.25,0
83.25,-11.25,-33.0,-76.75,4.0,-19.5,62.25,11.0,0
53.75,-4.0,-37.5,-60.25,83.75,17.25,53.75,6.75,0
38.5,-7.25,-30.0,-60.0,79.0,41.0,53.25,-18.75,0
41.75,8.0,-22.5,-44.25,100.0,68.0,67.5,-33.75,0
25.5,-12.5,-15.5,-33.0,128.0,94.5,53.5,-9.0,0
24.75,-11.5,-16.0,-23.0,118.5,137.25,45.75,-39.25,0
5.0,-10.0,-18.25,-0.75,148.0,164.25,44.75,-92.25,0
-30.5,17.25,-14.25,17.75,143.5,188.5,75.5,-80.0,0
-67.5,20.5,-5.75,39.5,111.75,224.25,76.25,-74.5,0
-98.5,16.75,-0.75,73.0,141.25,224.75,64.75,-109.25,0
-114.75,20.75,-6.75,78.25,173.0,228.5,52.75,-119.0,0
-93.0,24.5,-14.25,49.75,252.0,239.75,34.5,-135.0,0
-64.5,38.75,-19.75,26.5,272.5,278.0,45.0,-129.75,0
-51.75,12.75,-19.5,12.5,214.0,310.25,28.75,-101.0,0
-46.5,-2.0,-28.25,-3.0,223.75,313.25,22.0,-85.0,0
-52.25,20.75,-30.75,-24.0,173.0,328.75,25.75,-40.75,0
-41.5,29.25,-34.25,-31.5,173.75,322.5,57.0,-15.75,0
-2.25,27.75,-36.5,-76.5,160.5,291.5,89.0,17.0,0
13.25,22.5,-8.25,-87.5,169.5,276.5,99.25,39.5,0
31.25,27.5,-4.75,-19.0,162.25,255.0,93.0,42.0,0
49.75,5.75,-16.25,-6.75,75.25,218.5,45.5,41.0,0
64.5,-87.0,-11.25,-6.0,77.75,213.0,23.5,16.5,0
44.75,-77.0,-6.0,48.25,132.5,220.0,4.5,8.5,0
32.75,7.0,2.5,52.5,165.5,232.25,-3.25,-19.75,0
7.25,-8.5,4.0,66.0,161.75,266.75,56.25,-38.25,0
-28.5,-2.75,10.5,72.5,197.5,294.75,67.0,-27.0,0
-35.75,12.75,25.0,112.75,213.75,303.0,37.25,0.0,0
-72.25,-5.25,13.0,171.0,193.5,275.75,56.25,36.75,0
-63.0,5.25,-10.75,84.75,245.75,262.25,54.0,16.25,0
-72.0,-3.5,-5.0,-13.0,289.25,260.25,75.5,22.5,0
-79.0,-31.75,-5.75,-46.5,218.25,252.75,89.0,42.0,0
-62.5,-37.5,-2.0,-186.0,155.5,243.5,81.5,58.0,0
-60.5,-12.75,-18.25,-189.75,121.5,223.5,82.25,70.25,0
-54.25,-25.75,-21.75,-120.0,87.0,234.75,61.0,57.25,0
-54.25,-33.0,-16.75,-82.5,98.5,240.5,15.25,64.0,0
-49.25,-25.0,-29.5,-67.75,142.25,246.5,-21.5,103.75,0
-38.5,-10.25,-16.0,-99.25,82.5,222.0,29.5,148.75,0
6.0,3.5,-10.25,-99.75,-38.25,185.5,65.0,167.5,0
37.75,-1.25,-12.0,-1.5,-33.25,181.75,29.0,214.0,0
15.5,-17.25,-17.75,122.0,-16.25,163.25,23.25,265.75,0
-6.5,-26.25,-23.0,78.5,-71.0,153.75,14.25,300.0,0
-5.0,-16.75,-22.25,57.5,-27.75,168.5,-34.75,342.0,0
-18.5,-17.5,-19.5,27.75,69.75,163.75,-79.0,392.0,0
-3.75,6.25,-13.75,-26.5,41.0,141.5,-46.0,416.25,0
16.25,11.25,-24.75,-106.25,-36.75,133.25,10.75,399.75,0
25.25,6.5,-26.0,-84.75,-76.5,110.75,35.75,303.75,0
25.5,19.75,-13.25,17.5,-102.25,83.0,46.5,172.25,0
27.5,24.25,-7.25,17.75,-114.0,65.25,-6.5,80.75,0
41.5,22.75,6.25,5.0,-78.0,62.25,-21.0,13.75,0
4.0,5.75,-7.5,-1.0,-50.5,63.75,-15.0,-42.75,0
-14.0,-7.5,-9.25,7.5,-37.0,55.25,-13.75,-60.75,0
-18.25,-18.0,0.5,8.25,-65.5,50.0,-33.25,-43.25,0
-11.0,-17.0,-6.5,9.0,-83.75,20.75,-37.5,-47.0,0
-3.75,-21.75,-6.0,-5.0,10.0,17.75,14.25,-54.5,0
-32.75,-29.25,5.75,6.25,96.75,32.0,3.25,-37.75,0
-28.75,-15.5,5.5,-13.75,52.0,16.5,0.25,-5.5,0
16.0,9.75,6.25,-43.25,-34.75,-10.5,-2.0,25.25,0
20.0,27.75,6.75,-63.0,-72.75,-44.5,-27.75,28.5,0
44.0,51.75,10.0,-81.75,-104.0,-66.75,-8.0,20.5,0
57.25,54.0,10.75,-71.0,-71.5,-115.75,-9.0,13.25,0
52.5,31.75,8.5,-90.0,-90.75,-157.75,-18.5,46.5,0
66.0,19.0,6.0,-79.5,-76.5,-190.5,-31.25,70.0,0
53.5,16.75,5.25,-46.25,-22.0,-213.25,-23.0,45.25,0
38.25,19.75,15.75,2.5,33.0,-225.0,15.25,-19.5,0
-12.25,11.75,6.5,9.5,84.5,-237.0,1.75,-49.25,0
-32.0,19.0,-4.5,-4.0,32.25,-231.25,-60.0,-61.25,0
-47.0,10.75,-15.0,41.5,32.25,-212.75,-78.25,-83.75,0
-64.5,5.0,-3.25,53.75,-5.0,-221.5,-35.25,-89.5,0
-47.75,0.5,-3.75,34.5,-34.0,-230.5,9.0,-66.75,0
-49.25,7.75,-16.5,32.75,-52.75,-219.75,35.0,0.0,0
-21.0,54.75,-19.25,-1.5,-141.25,-235.5,23.5,78.75,0
1.5,73.5,-19.0,-5.25,-118.25,-221.75,39.5,108.25,0
-14.75,46.25,-28.75,0.0,-80.75,-193.25,42.75,83.5,0
-13.0,-10.5,-34.75,-36.75,-20.25,-170.5,30.75,63.25,0
-11.25,-49.25,-25.25,-38.0,76.25,-144.25,50.75,50.25,0
-33.75,-57.5,-23.25,-72.25,54.75,-108.0,60.0,58.25,0
-24.0,-37.0,-14.25,-79.0,47.5,-82.25,48.75,83.5,0
4.0,-30.0,-29.75,-35.25,12.25,-60.25,14.25,101.75,0
25.0,-9.75,-18.75,-19.0,17.75,-20.0,8.25,56.75,0
6.0,37.5,-4.75,-2.75,75.25,28.0,21.75,45.5,0
-19.25,-11.25,-11.25,11.75,10.75,41.5,13.25,87.75,0
23.25,-45.5,4.25,15.0,-34.25,15.5,5.5,42.75,0
22.0,-78.75,-12.5,-37.25,-17.5,23.25,4.5,-5.75,0
19.75,-57.25,-14.0,-17.5,-14.25,32.25,5.5,-5.75,0
15.75,41.0,-12.25,16.25,-7.25,42.0,35.25,28.75,0
-11.0,69.25,-33.5,41.25,1.5,45.25,56.75,57.5,0
-53.0,107.5,-10.0,74.5,32.0,54.0,54.5,-16.0,0
-98.25,101.25,-6.25,13.75,48.5,60.0,34.75,-39.75,0
-72.5,117.0,-1.25,-6.0,31.75,53.5,6.25,-7.75,0
-52.25,86.5,28.25,-9.25,84.75,47.5,-24.25,-72.75,0
-64.0,32.25,38.0,-3.75,156.0,29.25,-71.75,-127.25,0
-98.0,-26.25,24.0,13.25,130.75,21.75,-75.5,-138.25,0
-132.5,-108.75,14.0,19.0,133.5,15.25,-56.0,-119.5,0
-128.0,-129.75,10.25,50.25,191.25,24.5,-42.75,-19.5,0
-117.0,-129.25,10.75,34.75,172.25,22.25,-8.0,24.5,0
-95.75,-29.0,11.25,14.75,142.75,26.0,6.75,22.75,0
-69.75,11.0,-2.75,18.75,121.0,26.0,-11.75,43.25,0
-38.25,24.0,-3.75,-22.25,94.75,2.5,-14.75,37.5,0
-39.25,44.75,6.5,-102.25,111.25,2.75,-12.5,23.75,0
-0.5,43.0,16.0,-145.25,98.75,1.25,-14.0,10.5,0
26.5,-13.75,5.0,-80.0,140.25,21.0,0.25,14.0,0
32.75,-38.75,-6.25,-68.25,101.25,24.5,31.0,39.5,0
68.5,31.0,-27.25,-56.25,28.75,17.75,70.0,21.75,0
88.25,32.0,-18.25,-30.0,16.25,45.75,105.75,-3.25,0
84.25,-3.75,1.25,-102.5,42.5,79.0,124.75,-78.5,0
53.75,-64.5,-25.0,-148.5,88.5,115.5,112.0,-137.75,0
83.25,-66.0,-26.0,-162.5,80.0,111.5,103.5,-152.5,0
85.25,-74.0,-32.5,-90.25,116.0,114.0,86.0,-153.25,0
12.25,-91.75,-39.0,29.5,114.5,109.0,69.0,-164.25,0
-25.25,-91.0,-5.75,48.5,101.5,86.25,83.0,-193.25,0
-19.25,-70.25,5.5,-17.5,59.75,85.25,79.5,-168.25,0
-40.0,-2.0,-2.5,50.25,69.0,66.0,62.25,-147.0,0
-60.5,21.5,2.5,175.25,183.75,66.0,67.75,-112.25,0
-63.25,26.25,-1.25,183.75,223.0,68.25,75.25,-103.0,0
-72.75,-11.25,3.5,66.5,184.25,64.25,38.75,-107.5,0
-69.0,-10.25,13.5,-42.0,133.5,71.25,17.0,-73.5,0
-40.75,18.75,4.0,-86.75,80.0,81.0,35.75,-54.0,0
-2.75,43.0,-9.75,-7.75,59.75,99.75,37.25,-80.5,0
-10.75,51.75,-8.75,38.5,68.0,105.0,62.0,-99.0,0
-10.5,51.5,2.0,-71.0,54.5,109.5,71.5,-58.5,0
-3.25,67.75,-7.25,-33.25,-13.25,113.5,81.25,-4.5,0
-9.25,38.25,-18.75,-12.0,4.5,117.75,98.25,38.0,0
-7.5,6.25,-17.0,-17.75,42.5,119.25,115.25,79.0,0
-22.25,-10.5,-22.0,44.0,10.25,107.75,116.25,114.5,0
-51.25,-25.25,-11.25,29.75,17.75,102.5,54.25,152.75,0
-17.25,-25.0,-9.5,-29.5,-169.5,89.5,24.0,185.5,0
38.5,-2.25,-20.75,-68.5,-365.5,81.25,16.25,169.5,0
29.25,12.25,-17.5,-90.5,-384.0,80.0,6.75,174.0,0
38.75,12.5,-12.5,-108.5,-341.25,90.5,-2.75,163.25,0
30.0,6.5,-2.25,-148.25,-239.5,63.5,-15.25,76.25,0
23.75,24.25,3.0,-117.25,-171.25,32.0,20.75,8.5,0
15.75,31.0,3.5,-76.0,-83.0,45.5,32.75,-44.5,0
-6.25,10.75,-4.0,-126.25,26.0,36.0,44.75,-104.75,0
-24.0,17.0,-10.25,-4.5,51.5,42.5,46.75,-113.75,0
-41.0,10.25,-10.75,16.25,51.5,70.75,24.25,-81.25,0
1.25,19.25,-24.0,24.5,50.25,64.25,29.5,-93.0,0
19.0,29.5,-18.25,101.75,117.75,69.25,46.75,-79.75,0
-6.75,26.0,-30.5,1.0,191.5,73.25,29.5,-105.25,0
-1.5,6.5,-27.75,6.25,165.5,58.0,-11.5,-142.75,0
-14.0,-5.25,-14.75,-9.0,135.5,43.5,-5.0,-138.75,0
-41.0,-23.0,-16.5,-13.25,71.0,31.25,22.25,-142.25,0
-42.0,-57.0,-5.75,20.0,121.75,29.25,51.25,-116.25,0
-80.25,-45.0,-15.0,13.5,184.25,4.25,27.25,-108.25,0
-64.25,-36.0,-20.5,-1.5,62.0,-11.0,-16.0,-73.75,0
-15.0,-1.75,-29.5,-56.0,7.5,22.25,-49.5,-18.0,0
-34.75,19.0,-25.75,-59.25,13.75,54.75,-69.0,19.75,0
-45.0,35.25,-19.25,-26.75,-59.5,52.25,-37.0,67.5,0
-31.75,49.5,-16.75,5.0,-86.0,58.5,-2.0,115.25,0
-16.5,7.5,2.0,-34.0,-109.0,55.25,6.75,102.0,0
-6.5,8.5,-10.25,-61.25,-99.25,47.0,-3.5,73.5,0
-13.0,19.5,-18.75,-49.5,-68.5,69.0,-20.75,72.0,0
-27.0,2.75,-15.5,-33.0,-30.0,63.0,-37.25,51.25,0
-52.5,5.75,-11.0,0.75,-1.25,55.0,-38.5,54.25,0
-26.5,21.25,-13.5,2.0,-75.75,54.0,-41.25,30.0,0
17.75,33.25,-18.5,-5.5,-98.25,40.5,-27.25,-26.5,0
28.5,36.5,-7.75,-30.25,-10.75,4.75,-7.75,-55.75,0
34.25,14.25,-5.0,-63.25,50.25,-64.0,-18.75,-0.25,0
111.25,17.5,-29.0,-166.5,-134.75,-104.25,-57.75,129.5,0
223.5,15.5,-32.75,-149.75,-69.0,-55.75,-74.25,85.75,0
103.25,-10.0,-16.75,-2.5,284.5,11.25,-45.5,-22.75,0
-23.25,-19.75,-7.5,-6.25,322.25,2.0,-43.25,-22.25,0
-6.5,12.0,5.0,0.25,311.75,-7.5,-41.75,-72.5,0
-60.75,38.75,1.0,-6.75,296.5,7.0,-3.5,-113.0,0
-28.5,48.5,-4.25,-24.0,275.75,6.5,-2.25,-111.5,0
-8.5,84.5,-12.75,1.75,291.25,17.5,6.25,-63.0,0
-10.25,119.75,-14.5,6.5,207.5,11.75,12.5,-16.75,0
3.75,110.75,-13.5,43.75,125.0,-9.5,-21.75,39.0,0
2.75,54.25,-16.0,19.5,11.0,-5.75,-22.0,116.25,0
33.0,22.25,-18.5,-13.0,-93.75,-18.0,-2.0,115.75,0
55.0,23.0,-23.25,-48.75,-226.5,-36.0,4.25,148.75,0
116.0,-13.0,-27.25,-102.0,-283.0,-22.75,7.5,160.25,0
110.25,-87.75,-32.25,-119.0,-340.75,21.5,18.75,127.75,0
71.0,-119.25,-9.0,-92.25,-337.25,109.5,73.25,13.5,0
-48.5,-100.25,12.0,-9.5,-202.25,210.5,124.75,-89.75,0
-104.25,-74.25,8.25,-10.0,-220.5,183.25,119.75,-45.5,0
-57.5,-20.5,9.0,24.75,-98.5,126.75,138.75,-85.0,0
-169.75,27.0,12.5,123.0,-88.0,58.5,96.5,-80.25,0
-93.75,56.75,7.25,88.5,-126.0,-25.25,74.5,-65.75,0
-103.0,55.75,24.25,102.25,19.0,-41.5,92.0,22.75,0
-44.75,-12.25,14.25,36.5,-137.25,-82.25,55.75,130.25,0
26.25,-67.25,11.75,61.75,10.0,-48.75,77.75,42.0,0
-95.0,-56.25,10.75,77.25,-46.25,-43.5,50.75,133.0,0
25.75,-68.5,-12.5,80.0,-164.75,-14.25,86.0,139.75,0
-39.25,-83.5,6.5,174.5,-67.75,13.0,88.0,127.5,0
-16.5,-47.0,-1.25,-9.75,-68.5,17.25,61.75,123.0,0
-37.25,-65.75,4.5,-151.75,15.5,69.5,78.75,30.75,0
-39.0,-92.25,12.5,-269.25,-145.75,66.0,53.75,15.75,0
26.0,-33.5,-7.75,-231.75,-85.5,70.5,53.25,-33.5,0
-83.25,8.75,-16.25,-57.25,4.75,36.25,2.5,-21.0,0
-113.25,-0.75,-19.0,-54.0,-5.25,-4.0,-22.75,-7.75,0
-103.5,8.5,-29.5,-48.0,-31.75,-34.25,-6.25,-14.5,0
-43.0,-4.75,-25.75,54.5,-17.25,-58.25,-6.0,-62.75,0
-34.75,-16.0,-4.25,86.0,31.75,-70.25,22.5,4.0,0
-1.0,-2.5,-17.5,26.25,67.25,-46.25,82.75,50.75,0
-14.0,-18.25,5.0,46.75,169.5,-24.0,83.5,11.0,0
-49.0,-16.5,8.75,32.0,178.25,-31.25,41.25,6.25,0
-29.75,-1.0,-4.25,7.25,222.5,-63.25,17.5,6.5,0
32.75,3.5,-13.5,-46.75,184.25,-83.25,-21.0,7.5,0
51.5,24.5,-27.0,-57.5,275.0,-60.75,-29.25,-62.75,0
16.0,31.5,-6.0,-12.75,395.0,-56.25,-5.25,-89.25,0
19.5,22.0,-8.0,8.5,275.0,-82.25,-5.5,-48.5,0
68.25,45.75,-16.75,46.25,211.5,-110.25,-20.75,1.0,0
92.0,34.0,3.5,36.5,269.75,-56.25,-23.25,-50.25,0
43.0,15.5,-3.0,52.0,319.75,-29.0,-16.25,-68.25,0
18.75,8.5,-11.0,59.5,364.25,-17.5,-8.5,-13.5,0
-26.5,-5.75,16.25,58.0,351.75,0.75,-5.5,35.5,0
-10.0,43.0,0.5,51.25,286.5,-7.25,-25.75,131.5,0
-0.25,71.75,-1.0,41.5,266.0,19.5,-38.0,182.75,0
-39.75,52.0,21.25,42.0,333.25,18.5,-25.75,195.0,0
-54.75,34.75,2.0,-43.5,389.0,4.75,-49.0,138.25,0
-60.75,14.5,-3.75,-108.25,338.25,-15.25,-82.0,39.25,0
-44.0,16.0,-1.0,-5.0,342.0,-34.5,-61.25,-32.0,0
-64.0,-2.5,9.25,24.0,316.5,-29.25,-23.0,15.0,0
-49.25,-6.25,3.0,-48.75,224.5,-25.25,12.5,76.25,0
-8.75,-0.5,-14.75,-96.75,127.25,-47.75,86.75,110.0,0
28.75,-2.75,-3.5,-92.75,65.5,-41.75,114.75,93.0,0
-1.0,60.25,12.25,9.5,161.5,-17.0,131.25,36.0,0
-40.0,55.75,2.5,37.75,266.0,-16.5,117.25,46.0,0
-46.5,-3.5,-14.0,47.25,325.0,-32.75,72.25,73.75,0
-14.75,-4.75,-7.5,-6.25,274.25,-46.75,104.25,122.75,0
13.0,-10.0,-4.0,-39.0,115.0,-16.0,132.25,143.75,0
-25.5,-12.25,5.25,-32.75,29.25,18.75,146.75,136.5,0
-31.25,-32.75,-16.25,-136.0,-69.0,40.25,133.25,122.5,0
-24.0,-27.0,-38.75,-144.5,-215.5,66.5,146.0,112.75,0
-37.25,-45.5,-28.0,-84.75,-331.0,87.75,199.25,80.5,0
-38.5,-70.75,-8.75,54.25,-447.75,122.5,227.25,75.0,0
-16.0,-27.0,-3.75,116.25,-459.75,139.0,197.75,61.0,0
-44.0,-15.0,-4.5,67.25,-463.0,142.5,188.0,12.0,0
-44.25,9.75,-15.5,11.25,-694.0,125.75,198.75,-3.0,0
-30.5,6.75,-23.0,25.0,-842.25,107.5,191.0,-72.25,0
-149.75,-52.5,4.75,131.25,-760.75,149.25,207.75,-195.5,0
-248.5,-38.5,4.25,84.75,-831.0,131.0,165.5,-165.75,0
-60.75,23.0,-21.0,-76.25,-1031.25,32.75,101.75,-26.5,0
192.25,48.75,-43.5,-176.75,-1089.5,15.0,108.0,-14.5,0
165.25,24.0,-23.75,-99.25,-911.0,48.5,131.25,-1.5,0
46.75,18.5,-6.5,-31.5,-647.0,45.0,137.5,43.25,0
55.25,10.75,-5.0,-115.0,-579.5,-19.75,88.0,132.5,0
181.5,0.75,-20.25,-216.25,-629.5,-65.0,18.0,252.0,0
230.0,22.75,-32.5,-243.5,-674.25,-65.0,-21.25,331.0,0
268.5,-4.75,-38.0,-308.25,-862.5,-102.75,-79.25,465.25,0
401.75,-45.75,-66.75,-327.5,-941.0,-75.25,-74.5,416.25,0
268.25,-45.25,-52.0,-124.25,-638.0,17.75,-4.5,218.5,0
54.0,31.25,-13.5,-6.0,-505.5,38.0,19.25,120.25,0
-61.0,5.5,3.75,71.0,-281.0,92.0,36.75,-35.0,0
-254.0,-44.0,30.75,162.5,-180.25,143.25,-18.75,-77.75,0
-164.75,59.25,15.25,67.75,-376.25,163.75,-81.25,-48.25,0
-91.75,38.25,4.25,32.25,-448.0,181.5,-85.0,-14.25,0
-90.5,6.25,7.0,26.5,-560.75,186.5,-49.0,14.25,0
-142.75,-9.75,-6.75,68.0,-487.75,206.75,36.5,-37.0,0
-218.0,-45.5,0.75,118.25,-490.25,194.75,35.75,-124.75,0
-261.0,-26.5,-1.0,146.5,-546.0,169.5,8.5,-237.75,0
-314.75,-13.25,-2.0,128.5,-662.5,105.75,-45.75,-270.25,0
-220.75,16.5,7.75,97.5,-743.5,79.0,-67.75,-337.0,0
-194.5,23.25,10.25,92.75,-779.0,40.0,-34.75,-326.75,0
-135.25,20.0,-3.5,26.5,-905.0,2.5,-31.25,-231.5,0
-49.25,11.5,-7.5,-16.25,-934.0,-29.75,20.75,-70.25,0
23.25,19.0,6.25,-18.25,-860.0,-44.25,55.0,55.25,0
49.0,1.5,6.0,-21.5,-684.0,-54.0,66.0,24.25,0
63.0,-18.0,-17.25,-106.0,-463.25,-75.5,69.25,-18.75,0
73.25,-27.0,-27.75,-111.75,-134.75,-52.5,55.5,-17.25,0
91.25,9.0,-24.75,-136.0,56.25,-66.25,8.0,1.25,0
125.25,39.0,-34.25,-160.0,270.75,-46.75,-37.0,11.25,0
106.75,30.25,-36.75,-86.0,502.5,-48.25,-45.5,29.25,0
113.75,21.25,-10.25,-2.75,459.5,-50.0,-80.5,34.5,0
89.25,-16.25,8.75,-11.25,387.5,-3.75,-71.5,35.0,0
103.75,5.0,-5.25,-50.75,517.0,43.5,-15.25,25.0,0
81.0,16.75,-5.5,-4.5,853.75,97.5,0.25,27.25,0
23.25,15.5,0.5,19.0,1035.0,110.0,-19.0,47.0,0
-19.25,19.5,8.0,47.5,1084.5,89.75,-12.25,160.75,0
-20.75,-18.0,3.75,13.75,1102.5,36.75,14.5,240.5,0
-20.0,-25.25,-5.0,-10.25,1100.25,-48.25,15.25,172.25,0
-13.75,-5.75,-0.75,-22.0,996.25,-125.5,-13.5,35.0,0
16.25,-4.0,-9.75,-46.5,938.75,-140.0,-26.5,-80.75,0
-3.5,-9.5,-27.5,-34.0,987.25,-133.0,-25.25,-94.25,0
-3.75,-8.75,-32.75,-37.5,1033.5,-126.75,-16.75,-49.5,0
0.5,42.5,-16.75,-21.5,1069.75,-110.0,-24.5,45.5,0
-31.0,85.0,-9.5,-13.5,1142.5,-95.75,-57.0,101.75,0
-101.5,44.75,-7.5,41.0,1291.25,-50.25,-46.75,35.5,0
-292.25,-3.0,17.25,156.0,1503.5,13.0,-27.75,-11.0,0
-347.75,-53.25,12.0,123.25,1276.75,-17.5,-49.75,63.75,0
-57.25,-32.5,-20.5,-16.5,900.5,-54.75,-26.75,32.0,0
64.25,32.0,-17.75,23.75,931.25,-54.5,20.75,-84.75,0
19.0,12.5,-8.0,29.25,962.0,-90.25,5.75,-135.75,0
35.0,-14.0,-33.0,-2.0,974.5,-81.5,37.25,-160.0,0
-32.75,-39.0,-28.25,63.0,894.75,-57.0,91.75,-101.5,0
-55.25,-42.5,0.75,34.25,798.75,-35.75,121.5,1.5,0
-92.25,-35.25,-18.0,48.0,720.0,-19.75,121.75,79.75,0
-56.75,-35.0,-23.5,54.0,589.75,-14.25,83.75,83.5,0
-19.75,-46.75,-6.5,-21.25,586.5,-7.5,85.0,39.25,0
-24.0,-41.0,-4.25,-128.25,618.0,-15.75,70.0,44.75,0
1.25,15.5,-2.25,-173.25,494.0,-20.5,45.5,79.0,0
20.5,51.75,-17.0,-182.75,410.5,-21.25,38.25,133.75,0
67.5,65.25,-22.75,-215.75,273.5,-46.75,3.25,183.5,0
26.25,61.75,-7.5,-123.5,123.5,-41.25,-28.25,208.25,0
-42.0,35.75,-10.0,-29.25,-107.5,-15.25,-29.25,229.5,0
-66.0,8.75,-3.75,19.5,-449.75,-37.25,-9.5,295.0,0
-11.75,-34.25,4.5,12.5,-675.0,-53.25,22.75,414.75,0
63.75,-71.75,-4.5,-8.25,-886.25,-38.25,-16.5,489.0,0
104.0,-49.0,-5.25,-2.5,-887.25,3.5,-61.75,472.75,0
99.5,-5.25,-2.25,-26.0,-697.25,10.5,10.5,461.25,0
39.5,-4.75,-2.5,-25.0,-578.5,41.25,79.25,411.5,0
18.5,-7.5,5.5,-32.5,-616.5,69.25,63.75,245.25,0
51.75,0.75,12.5,-30.5,-651.0,68.75,17.75,131.25,0
59.0,41.75,0.25,-51.5,-607.25,93.0,21.0,99.5,0
35.25,72.75,2.75,-16.25,-565.5,93.5,26.25,61.0,0
-39.75,-4.75,7.25,40.25,-536.5,103.25,-1.5,18.0,0
-70.0,-18.0,-10.75,-17.25,-854.5,104.0,3.0,31.0,0
47.5,56.75,-6.0,-48.25,-1100.0,99.5,20.25,61.5,0
114.25,28.5,-3.25,-53.25,-1135.75,71.5,0.5,67.5,0
121.0,-13.75,-32.25,-72.75,-1116.5,51.0,-39.25,-17.25,0
88.0,-37.25,-28.25,-67.5,-1038.25,45.5,-64.75,-151.25,0
21.5,-24.75,-22.5,-2.0,-968.0,38.75,-103.75,-228.75,0
-13.0,-18.25,-19.0,30.0,-892.0,64.5,-128.75,-282.25,0
-90.5,-61.0,-3.75,33.5,-646.25,83.0,-140.0,-301.5,0
-127.25,-34.5,-8.25,28.0,-493.5,97.25,-161.5,-272.75,0
-110.5,5.25,4.0,7.0,-502.25,93.25,-172.75,-209.75,0
-65.75,-4.75,-6.0,-15.5,-631.5,49.0,-231.0,-141.5,0
35.25,-0.75,-22.25,-71.5,-672.0,1.0,-299.0,-159.5,0
65.25,-7.5,-22.5,-31.75,-522.0,-11.0,-316.5,-293.5,0
-18.0,-10.25,-22.75,65.5,-258.5,-15.5,-267.25,-439.75,0
-154.5,-8.0,1.5,122.0,-29.5,-34.0,-198.25,-531.25,0
-199.0,12.25,-2.25,96.0,19.5,-52.5,-150.75,-535.25,0
-125.25,83.0,-8.5,33.0,-96.25,-46.0,-123.75,-434.25,0
-51.0,43.25,-10.75,-15.75,-218.5,-50.5,-137.0,-317.5,0
14.75,3.0,-26.5,-84.5,-277.25,-50.75,-140.5,-185.5,0
107.75,24.25,-17.0,-79.75,-226.5,-5.5,-120.75,-61.25,0
111.0,-3.75,-19.0,-86.5,-168.75,14.25,-88.75,-29.0,0
53.75,-8.25,-34.25,-188.25,-18.75,13.25,-101.75,0.5,0
39.0,-8.5,-23.25,-121.0,78.5,25.25,-111.5,-2.25,0
-41.25,19.25,-16.0,64.75,129.25,31.25,-56.25,-21.0,0
-73.75,37.25,-10.75,-12.0,165.25,29.75,23.5,1.0,0
-31.25,9.75,2.0,-79.5,-53.25,0.25,78.75,46.0,0
4.5,14.5,-2.5,-85.0,-198.75,-4.5,127.5,84.25,0
-0.5,-0.25,-3.25,-10.0,-176.25,1.0,205.75,94.25,0
-19.75,-42.75,6.0,72.0,-224.25,-9.25,276.75,97.0,0
-31.5,-70.0,6.0,-7.75,-327.5,-31.25,307.0,112.75,0
-28.25,-7.25,-0.75,26.75,-453.0,-38.0,292.0,130.5,0
-16.75,51.25,12.0,41.75,-503.25,-5.25,290.5,125.75,0
-27.25,1.25,-3.0,17.25,-518.75,-1.5,307.75,121.75,0
37.5,32.0,-3.75,39.0,-526.5,-6.0,259.0,137.0,0
64.5,33.25,6.5,-11.0,-496.75,-24.75,168.0,154.0,0
65.25,28.0,-9.5,-39.75,-428.25,-49.75,135.25,152.75,0
55.75,88.0,-7.75,-21.5,-231.75,-30.75,107.75,102.75,0
5.0,96.5,-3.75,-18.25,39.5,15.5,76.25,69.5,0
19.0,63.5,-0.75,-30.0,161.0,66.5,86.75,108.25,0
40.75,22.5,0.0,-20.0,269.5,113.75,80.0,110.0,0
39.0,10.75,-11.5,-68.75,299.25,113.25,62.5,70.5,0
39.0,0.0,-41.25,-111.75,299.75,118.5,70.75,31.75,0
-8.25,7.25,-26.25,-5.25,414.5,118.75,55.0,-9.0,0
-37.25,16.0,7.75,68.0,415.0,102.0,7.75,-58.5,0
-16.0,12.25,4.0,0.5,473.75,124.5,-72.0,-97.0,0
-54.25,-12.5,15.25,1.0,505.5,129.0,-78.75,-126.0,0
-76.75,-53.25,5.75,-3.5,396.25,128.0,-38.0,-149.75,0
-75.0,-57.75,14.0,-16.5,358.75,105.25,13.5,-115.75,0
-65.0,-32.5,13.0,33.5,339.0,112.75,114.25,-104.25,0
-70.0,-26.75,3.5,1.0,306.5,195.75,120.25,-93.75,0
-56.25,-21.75,3.75,-42.0,255.5,284.25,68.5,27.5,0
7.75,16.0,-7.25,-76.0,159.5,304.0,27.25,132.0,0
-16.5,15.5,2.0,-47.75,150.75,220.75,-23.25,111.5,0
-45.5,18.75,5.5,-24.75,192.25,148.75,-70.75,87.75,0
-3.0,49.0,-3.0,-77.5,273.25,106.0,-63.75,123.75,0
-3.5,41.5,-19.25,-37.25,331.5,91.5,-69.25,125.75,0
-67.5,34.25,-7.0,6.5,266.0,56.25,-147.25,87.0,0
-63.5,24.0,-18.0,8.5,246.25,12.25,-185.25,102.0,0
-14.25,-1.5,-23.25,4.5,217.0,43.5,-183.75,155.75,0
-1.5,-10.75,-17.25,29.75,260.5,98.25,-198.75,93.0,0
-7.5,-21.0,-25.25,51.5,388.0,118.0,-221.75,44.75,0
2.0,-47.25,-23.25,44.75,450.0,106.75,-247.0,45.0,0
-62.0,-65.5,-31.5,60.0,633.25,76.25,-224.75,12.0,0
-108.5,-71.75,-33.5,72.75,734.25,73.75,-205.5,-35.5,0
-122.75,-64.0,-17.25,178.25,723.25,99.5,-179.75,-71.25,0
-149.5,-25.0,-6.0,194.0,616.5,73.5,-149.75,-22.75,0
-88.0,-3.75,-8.5,55.75,487.25,68.5,-158.0,0.5,0
-67.75,-5.25,8.25,-36.5,484.0,60.0,-136.5,-5.5,0
-55.75,-18.5,-3.0,-103.0,468.5,43.75,-88.75,-13.0,0
-50.25,1.25,-3.0,-127.5,362.75,19.5,-64.5,19.5,0
-6.25,13.75,15.0,-160.0,224.25,-17.75,-8.0,34.25,0
13.75,39.25,-7.0,-190.0,170.5,-8.5,63.25,27.25,0
14.75,73.75,-6.0,-166.25,155.0,-6.0,114.5,2.25,0
35.25,-7.75,-8.0,-116.0,189.25,-18.75,185.75,-92.75,0
11.25,-70.0,-5.0,-69.0,141.25,-24.75,197.5,-127.25,0
17.25,-113.5,-7.0,-11.25,68.0,-41.75,213.25,-125.25,0
31.5,-111.0,0.5,16.75,39.75,-107.25,222.5,-95.0,0
67.25,-60.25,7.5,-14.75,-44.25,-50.5,129.25,-57.25,0
125.75,-59.75,-14.25,-58.25,-108.0,-7.25,68.75,-62.0,0
124.5,-24.75,-10.25,-53.5,-91.0,-47.5,64.75,-83.25,0
104.25,36.5,-7.5,-37.75,-75.25,2.75,83.0,-94.5,0
77.0,25.75,-16.25,-19.25,9.25,-12.0,84.75,-109.0,0
38.75,8.5,-2.75,-19.75,100.5,16.25,47.25,-156.0,0
4.75,38.0,6.0,0.75,83.0,37.25,45.25,-191.5,0
-75.25,14.0,0.0,55.0,125.0,44.5,41.0,-195.0,0
-139.75,-11.75,7.5,68.5,34.0,52.75,48.25,-200.75,0
-122.5,22.25,12.5,53.0,-79.25,21.25,85.25,-209.5,0
-69.25,47.75,14.0,12.25,-131.25,12.75,130.25,-185.5,0
-37.5,43.75,9.5,-9.25,-269.0,-27.75,126.75,-136.5,0
38.25,53.0,-19.0,-47.5,-310.75,-55.0,117.0,-87.25,0
140.0,103.25,-32.5,-76.75,-284.75,-62.5,164.75,-133.5,0
56.75,99.0,-17.25,10.75,43.5,5.0,211.75,-259.0,0
-176.5,23.0,-1.25,98.75,236.0,58.25,211.0,-217.25,0
-161.75,28.5,-5.5,32.5,31.25,63.0,140.25,-51.5,0
75.25,8.75,-28.0,-94.25,-147.5,44.0,113.5,36.0,0
192.25,-102.75,-29.5,-133.0,-144.0,34.25,136.0,31.25,0
174.0,-165.0,-12.0,-128.0,-22.0,44.0,170.25,16.25,0
133.5,-136.75,-9.75,-119.25,184.5,33.0,187.75,-0.5,0
39.0,3.75,-22.0,-24.25,457.75,2.5,173.5,48.75,0
-16.0,49.0,-30.5,11.0,546.75,1.0,159.75,183.75,0
24.75,7.25,-20.5,-41.25,522.25,87.0,148.25,207.25,0
25.5,33.25,-23.0,-36.0,476.5,122.5,166.25,201.75,0
-20.5,21.75,-24.0,-17.25,520.5,129.75,166.5,198.0,0
-33.0,50.25,-24.25,-9.0,478.75,130.5,145.75,198.0,0
9.25,48.75,-30.75,-40.5,406.75,79.75,132.75,167.0,0
50.5,38.0,-17.5,-62.25,369.75,27.0,127.25,61.25,0
104.0,47.5,-18.25,-64.25,332.75,-2.5,101.75,-87.25,0
51.5,22.75,-18.25,-40.0,512.25,15.5,96.25,-256.25,0
-159.5,-6.25,-1.0,18.25,714.5,71.75,87.25,-195.75,0
-270.0,-46.0,-10.5,96.5,717.5,121.0,69.5,-2.25,0
-185.0,-42.25,-14.75,52.25,500.0,110.5,60.25,128.25,0
-6.25,-9.75,-17.75,-170.75,188.75,38.75,37.0,416.25,0
224.25,59.0,-19.0,-237.0,-84.0,-36.5,22.0,649.75,0
336.5,57.5,-27.0,-159.5,-104.0,-17.25,-36.25,624.75,0
309.75,43.75,-28.5,-184.0,-1.75,52.5,-71.5,516.25,0
269.25,81.0,-28.25,-91.0,137.5,76.25,-62.5,338.75,0
210.75,66.75,-32.25,-27.0,258.75,70.0,-96.0,196.25,0
173.0,36.0,-4.5,-24.0,278.5,-4.25,-128.5,-8.75,0
145.0,8.75,-23.25,-27.5,373.0,-51.75,-145.75,-223.75,0
148.0,-11.5,-51.5,-68.0,495.75,-33.0,-117.0,-182.25,0
139.75,-17.75,-41.75,-37.5,474.5,24.5,-91.5,81.25,0
115.75,5.5,-31.75,-79.25,329.0,109.25,-93.75,280.5,0
85.25,12.5,-0.75,-78.25,323.25,136.25,-78.0,298.25,0
39.5,3.0,3.75,-57.75,324.0,131.25,-37.5,282.75,0
-6.75,12.25,6.75,-22.5,291.5,169.75,11.0,231.75,0
-57.5,-15.25,-4.5,-33.75,199.75,193.5,10.0,174.25,0
-85.25,-21.75,-26.75,1.25,135.25,204.5,13.25,109.75,0
-101.0,-6.5,-3.0,66.25,77.0,184.0,12.0,99.75,0
-132.75,-32.5,43.0,0.5,-98.75,148.0,51.75,63.75,0
-164.0,-62.75,52.25,8.0,-164.25,149.0,84.5,29.75,0
-164.0,-66.0,60.0,42.25,-187.5,137.25,81.75,46.5,0
-163.0,-16.25,49.75,36.5,-151.5,148.0,107.75,-20.0,0
-177.0,7.5,27.5,117.5,-81.0,191.5,112.0,-17.75,0
-189.75,-25.75,28.5,246.75,2.75,241.75,128.0,26.75,0
-195.5,-47.75,25.5,205.25,40.0,265.0,142.0,21.75,0
-227.5,-23.75,22.25,104.25,-37.25,263.0,147.5,16.75,0
-219.75,-14.75,12.5,103.25,-33.0,258.5,112.75,13.25,0
-201.25,-17.75,18.75,26.0,41.5,260.0,77.0,41.25,0
-203.25,2.75,18.25,-6.25,26.0,233.25,103.0,42.75,0
-197.0,-9.25,26.75,-17.75,-4.0,187.0,80.25,5.25,0
-215.0,3.25,40.75,-67.75,-27.25,175.25,69.0,-15.0,0
-210.25,-18.75,24.75,-26.75,16.25,162.75,90.5,16.0,0
-198.5,-51.5,32.5,2.25,100.75,154.75,102.0,38.25,0
-184.0,-12.0,28.0,4.5,48.25,140.0,130.75,29.0,0
-178.25,5.25,32.75,-6.5,59.25,105.25,62.25,44.25,0
-174.5,-41.5,29.5,-11.25,113.5,79.5,16.75,94.0,0
-164.75,-67.0,7.25,-12.0,85.25,55.0,11.75,91.75,0
-157.25,-73.0,-1.5,-15.5,75.75,72.5,5.75,107.75,0
-162.5,-71.25,-9.0,-27.0,61.0,78.25,8.25,108.25,0
-167.75,-40.5,4.0,-48.25,42.0,73.75,-5.25,74.25,0
-133.25,-41.5,-21.0,-47.75,-35.0,90.5,8.5,97.5,0
-146.0,-78.5,-30.25,-58.25,-131.25,64.75,9.75,83.25,0
-144.75,-95.0,-15.75,-33.0,-148.75,32.0,9.5,60.25,0
-123.5,-99.0,-9.0,31.75,-224.75,13.0,-14.25,40.5,0
-112.0,-101.5,16.75,17.25,-313.5,-15.0,-48.0,42.75,0
-88.5,-64.75,-0.5,-15.0,-327.5,-33.75,-70.75,44.5,0
-68.75,-26.0,-5.0,33.25,-445.25,-44.75,-59.5,82.0,0
-65.75,38.5,-4.0,55.5,-524.75,-65.75,-49.75,110.75,0
-67.0,48.0,-8.5,30.75,-492.25,-84.0,-84.5,42.0,0
-45.25,6.0,2.5,4.75,-486.5,-119.25,-77.0,56.0,0
-45.75,9.5,15.75,7.5,-531.5,-162.75,-52.75,88.25,0
-30.5,7.5,16.25,20.25,-561.75,-201.5,-44.25,75.75,0
-21.5,18.0,16.75,8.5,-555.25,-249.5,-49.75,75.5,0
-22.5,33.0,9.0,36.0,-539.0,-300.75,-31.0,44.25,0
-23.25,55.25,-15.25,42.0,-568.25,-321.0,21.25,32.25,0
-5.0,42.75,-2.25,44.0,-553.25,-289.25,38.5,26.0,0
11.0,28.75,7.25,55.5,-443.25,-254.75,39.0,21.5,0
17.5,23.25,16.5,54.75,-424.75,-255.0,32.25,-16.25,0
46.0,77.0,4.0,56.25,-351.0,-266.25,28.0,-58.5,0
49.75,92.0,-11.25,3.25,-243.75,-274.5,34.5,-45.25,0
51.0,59.75,-9.75,-26.75,-372.0,-279.25,52.25,-47.25,0
44.0,72.5,-39.75,-50.25,-469.25,-254.0,59.75,-53.5,0
45.5,27.75,-36.0,-60.75,-426.75,-206.25,80.25,-64.25,0
44.5,38.0,-18.0,-87.25,-372.5,-157.25,85.75,-67.0,0
29.25,34.5,-16.5,-124.0,-295.75,-126.0,60.25,-60.0,0
20.25,42.0,-24.75,-77.0,-256.75,-110.0,69.5,-71.75,0
16.25,78.75,-36.0,-69.25,-252.0,-115.75,87.25,-81.5,0
20.0,81.25,-42.75,-45.5,-244.0,-129.75,62.25,-72.25,0
15.5,76.5,-48.0,14.75,-321.75,-142.25,58.5,-59.75,0
14.75,-7.25,-41.75,34.0,-415.75,-148.0,65.25,-58.5,0
9.0,-29.5,-20.5,28.75,-479.75,-127.25,47.25,-39.75,0
9.75,-19.75,-32.75,22.25,-516.0,-132.25,81.5,-52.5,0
10.25,-62.25,-37.25,31.5,-448.25,-142.25,93.5,-64.25,0
11.25,-123.25,-30.25,19.5,-298.0,-129.0,69.75,-57.75,0
39.5,-123.0,-40.25,27.25,-171.75,-132.25,52.75,-49.5,0
47.75,-19.5,-42.5,17.5,-149.5,-153.5,38.25,-58.75,0
59.25,50.75,-34.0,19.0,-131.5,-197.75,38.0,-55.5,0
72.75,66.25,-16.5,96.75,-16.25,-219.5,33.0,-18.75,0
54.75,58.25,-32.0,154.75,5.25,-195.5,66.25,-7.5,0
45.25,46.75,-47.75,87.5,-13.25,-147.25,81.5,17.25,0
51.5,25.75,-42.75,-33.25,42.5,-93.5,105.5,40.0,0
55.0,18.25,-21.75,-94.25,55.75,-69.25,115.75,25.0,0
44.25,42.25,0.5,-149.0,144.5,-37.75,91.25,-16.5,0
50.75,43.5,-7.0,-135.25,154.75,-13.25,103.75,-33.75,0
51.5,48.25,-4.0,-92.25,93.25,-5.5,115.75,-39.25,0
48.0,54.75,-4.25,-86.75,120.25,31.75,108.25,-96.25,0
47.0,76.0,-12.25,-36.75,166.0,53.75,82.0,-96.25,0
42.5,82.25,-11.25,21.25,177.25,58.75,82.5,-105.5,0
33.75,55.5,-30.75,6.0,205.5,93.75,84.75,-138.5,0
32.25,28.5,-27.25,20.25,263.75,124.0,66.5,-107.25,0
25.25,-1.5,-16.0,28.75,188.75,157.75,61.5,-48.0,0
11.0,-7.75,-21.0,25.75,133.25,178.75,69.5,-33.25,0
18.75,13.75,-17.0,20.0,213.75,191.0,111.25,-30.0,0
20.0,41.25,-26.75,-9.25,245.75,215.5,131.0,-38.5,0
12.25,29.25,-18.25,-22.25,219.25,211.25,107.5,-74.0,0
20.0,-24.5,-26.5,-48.75,237.75,214.0,56.0,-55.0,0
16.75,-48.75,-24.5,-33.5,234.25,232.0,38.25,-35.25,0
16.5,-5.5,-11.75,-63.0,311.5,238.25,50.5,5.25,0
13.25,-36.0,-8.5,-76.0,324.5,238.5,78.5,13.25,0
5.0,-57.75,7.0,-39.75,276.25,255.5,124.75,5.25,0
17.75,-33.25,-1.5,-32.5,317.5,299.25,138.25,-17.5,0
22.5,35.0,-13.25,2.5,225.0,300.25,127.25,-43.0,0
23.75,63.0,-24.0,40.75,163.5,294.5,92.5,-30.25,0
25.0,-0.25,4.0,52.0,167.5,286.75,47.25,-42.25,0
20.75,-0.5,26.25,-84.75,106.0,240.75,18.25,-65.75,0
28.5,-42.75,23.5,-133.25,60.0,165.25,3.5,-56.0,0
19.75,-31.25,28.25,-15.25,39.75,90.75,1.5,-23.5,0
18.25,0.75,19.0,-62.5,11.25,80.75,-26.25,-10.0,0
30.5,5.5,12.0,-60.5,-95.75,130.75,-72.75,-26.75,0
31.5,64.75,13.25,-10.5,-67.25,173.75,-64.75,-39.75,0
27.25,71.75,19.5,-15.0,54.25,180.5,-61.75,-23.75,0
38.0,51.75,21.25,13.25,37.25,169.5,-89.0,-17.5,0
50.5,45.25,10.75,-12.0,12.0,138.75,-129.0,-9.75,0
50.25,59.0,6.5,-27.25,74.0,109.0,-183.0,8.5,0
55.75,60.75,-0.75,-52.25,165.75,77.0,-156.0,2.75,0
58.5,29.5,4.75,-32.25,264.0,38.25,-70.75,-2.25,0
64.75,9.0,0.25,-20.25,268.25,21.25,-20.75,-9.75,0
63.5,35.75,-22.5,-48.75,161.75,-19.5,2.0,-28.0,0
51.0,94.75,-45.25,-55.75,183.75,-25.75,-23.0,-17.5,0
40.25,96.0,-42.75,-67.25,195.0,-28.5,-40.25,5.0,0
28.0,82.75,-41.75,-16.0,192.0,-36.75,-27.5,19.25,0
14.5,28.5,-60.0,-1.0,145.5,-63.5,-28.75,32.75,0
21.0,-66.25,-55.75,10.75,45.25,-113.25,15.5,27.0,0
42.5,-55.0,-63.25,-2.75,44.5,-135.75,47.0,32.25,0
61.75,-4.5,-69.0,-22.5,29.5,-164.25,47.5,51.75,0
67.75,-23.5,-68.75,23.5,37.75,-160.75,32.5,68.25,0
54.0,-112.0,-66.0,19.5,46.25,-169.0,22.0,83.75,0
41.5,-157.5,-62.0,12.5,42.0,-154.25,54.5,100.75,0
32.0,-134.25,-49.0,-16.0,-6.25,-131.75,91.25,110.25,0
24.75,-77.0,-47.5,-59.5,50.25,-134.75,127.0,125.25,0
4.5,6.75,-54.25,-65.25,158.25,-147.0,128.25,128.75,0
16.75,88.0,-49.25,-40.75,151.25,-172.25,45.75,89.75,0
8.75,81.0,-51.5,-9.25,171.75,-182.75,-31.5,49.25,0
9.75,31.75,-53.25,-37.25,151.75,-200.5,-32.75,39.5,0
11.0,-49.0,-30.25,-118.5,65.5,-202.5,-26.25,104.25,0
-9.75,-120.5,-19.75,-127.25,18.5,-217.0,4.0,143.0,0
-11.75,-109.75,-11.75,-77.5,12.75,-180.0,33.25,75.25,0
-26.25,-75.0,-8.0,-107.0,-30.5,-105.5,-29.75,30.75,0
-19.75,-12.75,-33.75,-105.0,-59.5,-54.0,-59.25,60.0,0
-19.25,10.25,-52.75,-11.5,-72.5,-3.75,-52.0,56.25,0
-12.75,36.25,-48.25,50.5,-101.75,-34.25,-116.5,28.5,0
-5.25,23.25,-36.75,46.25,-119.75,-41.5,-143.75,-14.0,0
-3.75,13.0,-43.5,57.5,-104.25,-36.75,-130.5,-93.0,0
-14.25,67.75,-11.0,55.5,-78.0,-75.0,-155.0,-75.5,0
-23.0,55.75,7.75,-27.25,-68.75,-75.0,-242.5,40.25,0
-23.0,39.75,18.0,-60.75,-70.5,-55.25,-354.0,80.75,0
-39.25,29.5,31.0,-24.75,-23.25,-46.0,-372.25,57.5,0
-31.75,43.0,16.0,14.0,12.75,-59.0,-308.5,28.75,0
-39.0,38.25,12.25,25.0,-122.25,-68.75,-208.5,18.0,0
-51.5,-32.25,11.5,19.75,-131.0,-65.75,-159.0,39.5,0
-76.0,-94.25,21.5,20.25,-27.5,-36.5,-173.5,55.75,0
-73.25,-132.25,10.5,-3.5,-54.75,-11.0,-152.5,60.0,0
-55.75,-102.25,-5.75,-52.0,29.75,15.5,-91.25,48.75,0
-72.75,-127.75,-2.25,-97.5,130.25,41.0,-7.75,35.5,0
-80.5,-121.0,2.5,-55.25,126.75,42.0,26.75,24.75,0
-60.25,-29.75,13.5,0.75,173.75,38.5,9.75,4.5,0
-34.5,-69.0,19.5,-21.5,202.75,30.75,-46.75,-7.25,0
-31.0,-46.25,28.0,-11.5,250.5,25.75,-132.25,-23.25,0
-21.0,58.75,45.25,-38.5,248.75,48.5,-144.0,-26.75,0
-19.5,77.75,45.0,-73.75,236.25,63.0,-123.25,-36.0,0
-32.25,50.25,31.75,-68.25,265.5,52.75,-129.5,-32.75,0
-21.75,23.0,31.5,-15.25,265.25,54.75,-137.75,-33.5,0
-9.0,8.0,17.75,56.75,278.0,79.5,-96.5,-18.0,0
-9.75,-33.5,8.5,31.0,279.5,82.75,10.5,-27.75,0
-14.75,-65.0,2.0,-0.5,248.75,79.75,137.5,-47.25,0
-27.5,-70.25,12.75,-9.75,223.75,41.5,196.0,-56.5,0
-30.25,-27.5,4.25,-34.75,175.75,-26.0,169.0,-91.75,0
-28.25,4.25,-8.5,-59.0,79.5,-0.25,92.75,-94.25,0
-37.75,-21.5,-18.0,-34.75,35.25,24.25,29.25,-76.25,0
-50.75,-37.5,-19.25,-36.5,64.0,58.75,81.75,-41.5,0
-50.0,-30.25,8.75,-95.75,44.75,99.75,148.75,-31.25,0
-32.5,-4.5,3.25,-29.25,48.5,114.25,202.5,-26.25,0
-18.25,16.5,1.75,-3.75,93.25,120.75,270.25,0.25,0
-22.25,26.0,-11.5,-46.5,73.5,87.0,248.0,33.75,0
-47.0,32.25,-16.5,-48.75,76.0,62.0,158.75,36.25,0
-56.5,18.5,-17.75,-28.5,155.5,20.75,91.75,3.75,0
-58.75,-22.75,-15.5,-1.25,73.25,10.5,87.0,-12.25,0
-38.25,41.75,-10.25,-39.25,-34.5,44.5,125.75,-11.25,0
5.0,180.5,-0.5,-27.5,112.25,77.75,168.5,-2.75,0
2.5,102.0,29.25,-34.0,78.25,123.5,199.25,8.0,0
-10.5,-14.25,20.5,-20.75,45.75,165.5,159.25,14.5,0
-13.5,-19.25,17.0,8.25,128.0,176.25,70.0,22.25,0
-8.75,-42.75,6.25,3.0,33.75,154.0,-2.5,38.5,0
-13.75,-2.5,-21.5,49.75,76.75,136.75,-49.0,48.5,0
-13.0,-32.0,-1.0,53.0,108.0,157.75,-103.5,64.0,0
-14.0,-82.25,12.5,9.25,8.75,157.25,-171.0,73.5,0
-19.0,-95.5,-16.5,-1.5,52.5,155.5,-133.25,95.25,0
-25.5,-144.25,-9.75,-18.0,80.75,187.5,-23.0,142.5,0
-48.5,-251.75,-12.5,-59.25,216.25,256.5,53.75,178.25,0
-63.5,-391.25,-14.25,-56.5,445.0,342.25,72.5,213.75,0
-101.75,-473.25,-15.25,-64.75,496.25,371.25,25.25,218.75,0
-165.0,-484.25,-2.0,-56.75,477.75,389.0,-11.5,159.25,0
-212.5,-458.0,22.5,-42.5,361.5,413.0,-38.0,106.75,0
-296.75,-461.75,17.25,-7.25,292.75,374.0,11.75,46.5,0
-440.75,-440.5,28.75,78.25,283.75,310.75,98.25,-46.25,0
-574.75,-453.5,46.25,146.5,211.75,296.75,81.25,-122.25,0
-594.75,-435.75,67.0,245.75,171.0,273.25,21.25,-191.0,0
-539.25,-369.0,89.0,434.0,91.5,167.5,-7.5,-299.75,0
-500.0,-285.0,27.75,643.5,-7.25,200.0,69.5,-618.0,0
-455.25,216.75,-358.0,614.5,-43.75,448.0,381.0,-640.75,0
-396.75,1074.0,-674.75,566.0,-25.25,403.25,513.0,-553.5,0
-324.0,1058.75,-446.0,669.5,-73.25,158.0,360.75,-567.25,0
-179.75,797.0,-341.75,501.75,-315.0,111.5,197.0,-393.0,0
-50.75,920.0,-321.0,194.75,-426.5,27.25,89.0,-219.25,0
44.75,707.75,-146.0,-17.25,-445.75,-64.75,-60.25,-185.0,0
121.75,622.25,-178.0,-111.0,-486.0,-146.0,-108.75,-11.75,0
182.5,503.75,-66.25,-107.0,-528.75,-251.0,-237.25,41.25,0
227.5,350.5,-66.0,-244.0,-596.5,-265.5,-171.5,134.25,0
262.5,325.25,-15.0,-320.75,-608.0,-296.25,-168.25,159.0,0
291.0,134.0,31.25,-269.75,-737.0,-288.5,-192.0,217.5,0
315.75,116.25,66.0,-282.5,-739.0,-289.0,-228.75,264.0,0
336.5,32.25,120.75,-231.5,-784.25,-261.75,-314.75,268.0,0
350.5,101.5,115.75,-242.75,-856.75,-270.25,-390.75,291.25,0
344.75,84.5,131.5,-280.0,-760.0,-269.75,-521.25,283.0,0
318.75,34.25,107.0,-269.75,-763.25,-293.75,-579.0,306.5,0
335.75,-6.0,135.0,-291.0,-778.75,-302.25,-563.0,303.75,0
332.25,-26.75,119.0,-272.25,-820.0,-282.5,-375.75,341.5,0
301.5,1.75,123.5,-365.5,-821.25,-263.5,-149.5,310.0,0
276.75,-43.0,127.25,-455.5,-811.75,-223.0,-117.75,274.0,0
246.75,-54.25,131.0,-387.75,-769.0,-210.75,-129.0,260.25,0
222.25,-84.75,122.75,-365.0,-682.75,-197.25,-36.0,238.5,0
192.75,-129.75,126.25,-391.5,-703.5,-199.0,0.5,227.5,0
179.5,-142.25,133.25,-368.25,-601.75,-203.25,104.5,197.25,0
187.5,-88.0,109.0,-377.5,-401.75,-210.75,203.5,173.5,0
168.75,-82.0,108.0,-251.25,-305.0,-220.0,236.25,145.0,0
154.25,-96.75,102.25,-169.5,-218.25,-275.25,280.5,139.25,0
151.0,-105.25,118.25,-161.75,-76.0,-306.0,280.0,98.5,0
136.75,-113.5,111.75,-116.0,-90.5,-280.0,276.0,66.75,0
102.5,-126.0,87.25,-95.25,-115.25,-212.75,291.0,48.5,0
101.75,-77.0,72.5,-71.25,75.25,-149.0,272.0,34.0,0
122.75,-43.25,62.0,-86.75,274.25,-113.0,226.5,36.75,0
93.25,-65.25,45.0,-82.25,255.0,-105.0,200.5,29.25,0
82.75,-35.25,44.25,-80.25,179.0,-139.75,152.0,18.0,0
66.5,-63.5,65.25,-65.0,306.75,-115.75,166.25,19.0,0
28.25,-97.75,40.5,-64.25,527.75,-83.25,139.0,40.75,0
16.25,-66.25,38.25,-39.5,757.5,-14.0,99.75,39.75,0
18.0,-46.25,38.5,-31.75,887.5,31.75,75.25,26.5,0
8.5,-72.0,20.0,-36.5,920.5,29.25,-7.5,26.75,0
-8.0,-57.75,11.5,-55.0,778.75,43.5,-45.5,41.0,0
-8.5,-41.0,6.5,-60.0,693.0,24.25,-73.0,56.5,0
-17.75,-50.25,-1.5,28.5,670.25,-42.75,-62.0,77.0,0
-11.25,-38.5,11.25,6.5,653.5,-81.5,-67.5,78.75,0
-12.0,-24.5,12.0,-55.5,691.5,-84.75,-114.0,44.5,0
-21.75,-15.75,6.25,4.5,534.5,-108.5,-144.75,26.25,0
-27.0,-10.0,14.5,35.5,458.25,-146.25,-209.5,34.25,0
-35.75,-9.0,-10.0,22.75,330.5,-139.25,-229.75,42.5,0
-35.0,-38.75,-11.25,74.0,183.0,-26.75,-195.5,37.25,0
-45.0,4.75,-9.25,82.5,188.25,98.75,-106.0,29.25,0
-40.25,34.0,-20.0,60.25,156.5,166.75,-19.0,20.0,0
-42.0,2.0,-13.75,50.0,196.75,76.75,-7.5,12.0,0
-47.75,-7.25,-14.5,6.0,202.25,-83.0,-79.0,0.0,0
-67.25,-57.5,-20.5,-0.25,101.0,-212.5,-128.75,-15.0,0
-86.0,-67.0,-31.0,19.75,124.0,-263.75,-114.0,-32.0,0
-73.5,-40.0,-22.0,32.0,174.5,-286.0,-114.0,-30.0,0
-74.25,-60.0,-11.75,37.0,195.75,-248.5,-67.5,-3.0,0
-67.5,-73.5,-15.25,36.25,136.25,-132.25,-20.5,-45.75,0
-56.75,-24.0,-18.75,56.0,129.0,-58.25,43.5,-79.0,0
-60.25,10.0,-29.25,113.5,141.5,69.25,103.25,-35.25,0
-59.0,18.0,-26.75,147.0,103.5,158.5,112.5,37.75,0
-64.0,15.75,-23.75,113.75,131.5,216.5,132.0,49.25,0
-76.75,0.25,-32.25,88.75,174.0,215.5,140.0,-16.0,0
-74.25,24.25,-31.25,81.25,315.0,166.25,117.75,-16.0,0
-54.0,31.0,-41.5,30.25,310.25,132.25,82.0,-6.75,0
-68.25,29.0,-44.25,-36.25,290.5,94.0,78.5,-24.75,0
-71.0,14.5,-41.75,15.5,307.75,109.0,100.5,-22.5,0
-68.5,3.75,-34.75,19.75,407.5,138.5,20.75,-52.5,0
-68.5,-12.5,-36.75,-20.25,526.25,149.0,-96.0,-69.0,0
-48.5,-32.5,-50.25,12.0,512.25,146.0,-118.75,-76.75,0
-57.5,-1.75,-59.5,-16.25,651.5,140.75,-110.25,-90.75,0
-41.0,-12.75,-61.75,-17.0,612.75,131.0,-116.0,-67.5,0
-41.25,-17.0,-42.5,-41.75,601.75,161.25,-54.5,-65.5,0
-56.25,-14.0,-46.75,-64.25,595.0,196.25,63.25,-72.25,0
-55.0,-30.25,-48.75,-23.25,527.25,221.0,179.0,-64.75,0
-53.25,-20.5,-31.0,68.75,568.75,232.75,298.0,-65.25,0
-38.0,-4.75,-38.75,115.0,495.5,215.0,374.0,-58.75,0
-34.75,5.0,-47.5,149.5,442.5,213.25,404.75,-58.5,0
-29.5,-3.5,-41.75,191.25,368.5,206.0,378.0,-60.75,0
-15.25,-8.0,-18.5,128.75,330.0,177.5,301.75,-54.0,0
-10.25,-15.0,-10.75,82.25,298.75,129.5,244.0,-59.25,0
-22.5,-10.75,-13.75,74.25,308.0,116.75,186.25,-72.75,0
-20.0,24.75,-11.0,110.5,295.25,128.0,208.0,-78.5,0
-18.0,71.25,-23.0,28.25,211.25,134.75,246.0,-57.5,0
-16.75,65.25,-12.75,-121.25,204.0,155.0,200.25,-30.0,0
-0.5,16.5,-8.5,-151.5,115.25,197.0,195.75,1.75,0
-7.5,-9.25,-4.25,-133.25,73.75,212.75,170.5,-5.25,0
-19.25,-45.25,13.0,-93.25,-12.25,187.5,92.25,-18.5,0
-20.25,-97.0,2.25,-70.75,-130.25,155.0,-1.25,-3.25,0
-9.75,-140.75,-18.75,-3.75,-179.5,146.25,-91.0,-38.25,0
-21.5,-142.75,-29.5,41.25,-175.0,169.0,-119.5,-73.5,0
-27.25,-111.5,-8.25,52.75,-191.25,161.5,-182.75,-91.75,0
-19.5,-50.75,-13.5,18.75,-131.75,192.25,-128.75,-106.5,0
-47.75,56.5,-10.5,-33.75,-190.25,232.75,-8.75,-83.75,0
-54.25,120.5,1.0,15.25,-382.0,200.75,7.75,-77.75,0
-33.75,82.25,1.0,43.25,-282.0,141.5,-29.25,-129.75,0
-31.75,21.5,11.75,47.0,-108.5,92.0,-127.25,-172.75,0
-37.75,6.0,-4.75,28.0,118.25,56.25,-228.75,-181.0,0
-36.25,-42.5,10.25,14.75,456.5,44.25,-305.25,-136.25,0
-34.0,-22.5,21.25,20.75,745.0,50.25,-387.5,-117.75,0
-39.75,22.75,4.25,-39.0,1053.75,27.25,-433.75,-141.75,0
-38.75,4.75,-6.75,-45.5,1262.0,-8.25,-435.5,-74.75,0
-38.5,40.75,-11.75,-53.75,1331.5,-12.75,-466.25,18.75,0
-39.25,57.5,-19.5,-80.75,1408.75,-6.0,-433.25,109.25,0
-35.75,66.75,-23.5,-33.75,1239.25,-4.25,-380.25,124.0,0
-38.25,59.0,-7.0,7.5,802.25,-41.0,-334.75,149.5,0
-33.25,45.0,-10.0,30.0,521.0,-114.5,-312.0,164.75,0
-32.0,65.0,-10.25,10.5,20.75,-92.0,-328.0,133.0,0
-53.75,34.25,-14.5,11.25,-537.5,38.0,-278.25,161.25,0
-65.75,-8.25,-2.5,26.5,-1099.5,123.5,-175.5,154.75,0
-50.25,-19.25,-3.25,0.75,-1582.0,190.25,-109.25,145.0,0
-51.75,-6.0,-19.25,-16.75,-1637.25,282.5,-31.5,126.75,0
-38.25,22.75,-13.0,-41.75,-1702.0,281.5,31.75,134.75,0
-25.0,0.75,-24.5,-38.0,-1796.25,228.5,27.5,139.25,0
-20.25,-7.0,-13.75,-46.0,-1857.75,109.25,49.75,114.25,0
-16.75,-23.25,-27.5,-33.75,-1878.0,-64.25,117.0,139.5,0
-13.0,-63.75,-31.25,-15.75,-1883.0,-197.25,199.0,128.25,0
2.25,-55.75,-23.75,-46.5,-1800.5,-265.0,233.0,96.25,0
2.25,-43.75,-29.5,-62.5,-1625.25,-233.25,273.0,107.25,0
15.75,-47.75,-13.5,-8.0,-1496.0,-192.0,267.0,144.5,0
7.5,-14.75,-20.25,52.5,-1444.5,-171.0,205.75,171.75,0
-6.0,45.75,-16.5,44.0,-1289.25,-195.5,203.25,193.25,0
-3.0,38.75,-7.25,85.5,-846.0,-207.0,253.0,202.0,0
-16.75,55.5,7.0,46.5,-433.75,-131.75,324.75,182.25,0
-5.5,56.75,-1.5,-37.25,-119.5,-29.5,361.0,189.75,0
7.25,76.25,-12.25,-9.25,13.75,34.0,382.25,208.0,0
-4.5,78.0,6.25,-27.5,57.75,22.5,378.75,219.25,0
-20.0,22.0,-6.0,-41.5,113.75,25.0,354.25,212.0,0
-12.25,34.0,-22.5,-32.75,268.5,39.75,415.75,146.25,0
-13.25,43.5,-24.0,-65.0,408.5,52.0,501.5,129.0,0
-27.5,58.75,-23.5,-151.0,568.25,73.25,440.75,132.5,0
-30.25,44.0,-20.5,-80.5,576.5,77.75,367.5,103.0,0
-24.0,4.75,-24.75,39.75,532.25,134.25,336.0,94.0,0
-27.0,-25.75,-13.25,-0.5,512.75,250.0,331.25,81.0,0
-33.0,-38.5,7.25,-11.25,354.25,337.5,344.75,69.0,0
-21.75,-31.5,6.0,36.25,329.5,372.25,328.0,34.25,0
-22.0,-29.0,4.5,169.0,307.5,355.75,321.5,13.25,0
-12.0,-45.75,-24.0,169.25,256.25,246.0,257.5,5.75,0
-4.75,-84.5,-59.75,182.5,272.5,147.0,185.75,7.0,0
-4.5,-75.75,-46.5,268.25,172.5,86.25,159.25,42.25,0
-1.25,-87.75,-25.5,29.0,119.5,49.75,115.5,74.75,0
6.75,-67.25,9.75,-161.0,-9.75,-12.25,29.5,126.25,0
13.5,0.75,21.75,-212.75,-234.0,-89.0,-24.0,139.0,0
16.0,4.0,21.25,-234.75,-478.0,-120.5,-61.5,124.75,0
29.25,3.5,22.5,-203.25,-814.0,-166.0,-66.75,114.25,0
37.75,9.0,11.0,-235.25,-930.5,-182.5,-19.5,94.75,0
40.75,25.5,-5.75,-133.5,-973.25,-203.5,-18.25,66.0,0
24.0,16.75,-22.0,-42.0,-940.0,-231.75,-92.25,8.0,0
16.25,-5.5,-9.25,-32.25,-902.25,-247.25,-133.25,-92.0,0
15.75,-4.75,-2.0,-12.5,-956.0,-276.75,-162.25,-188.0,0
-24.0,44.25,-10.0,10.5,-943.0,-289.75,-177.75,-161.0,0
-12.25,72.75,-5.0,43.0,-871.75,-242.5,-156.0,-107.0,0
-7.0,2.0,-8.0,33.75,-680.0,-126.5,-147.75,-154.5,0
-29.0,-6.25,-15.0,34.25,-477.25,-93.0,-100.25,-172.75,0
-30.5,17.0,-19.75,22.75,-322.0,-67.25,-85.0,-134.75,0
-24.25,21.25,-14.75,-0.5,-159.5,-30.25,-110.25,-105.75,0
-25.0,26.5,-11.75,-2.5,-57.25,-36.0,-140.25,-183.5,0
-19.75,26.75,-11.5,-3.25,23.5,-20.25,-146.25,-235.25,0
-6.75,36.0,-9.25,-7.0,101.0,5.25,-75.25,-50.5,0
-8.0,29.75,-19.75,3.75,160.0,61.0,-88.0,49.75,0
-8.25,26.75,-24.25,-10.5,241.0,107.0,-94.0,28.75,0
-15.5,9.25,-23.0,-41.75,338.0,130.5,-80.0,29.25,0
-29.75,-24.5,0.25,-91.5,400.75,127.5,-84.25,-10.75,0
-25.75,-26.25,7.5,-127.25,447.75,139.75,11.75,-1.5,0
-18.5,-5.5,10.5,-85.0,529.0,171.5,104.0,-16.5,0
-39.0,13.25,15.5,-6.25,512.5,187.5,72.5,-38.5,0
-43.0,37.25,-7.5,41.5,526.0,189.0,39.75,-51.0,0
-34.0,50.5,-16.25,10.75,634.0,193.0,61.0,-82.25,0
-18.0,78.5,0.25,10.25,727.25,185.75,-18.25,-119.5,0
-18.75,97.0,13.25,46.0,825.0,157.0,-106.5,-104.75,0
-19.75,50.25,-4.5,32.5,902.0,140.25,-22.25,-67.25,0
-27.75,7.25,-8.75,9.75,990.0,152.25,107.75,-87.25,0
-27.75,-40.5,4.25,25.75,981.25,243.25,127.0,-61.75,0
-8.75,0.25,-7.5,6.0,962.5,412.5,140.0,28.75,0
-2.75,32.0,-5.75,-41.75,946.0,532.0,176.75,129.75,0
6.5,-47.5,25.5,-30.5,836.0,577.5,200.25,153.75,0
-2.75,-84.5,18.5,-22.25,824.5,486.5,170.75,115.25,0
-8.0,-93.0,2.25,-56.0,880.75,374.0,116.75,97.5,0
5.75,-29.0,20.75,-81.25,933.5,407.5,122.25,56.25,0
0.0,19.75,27.75,-99.5,1102.25,334.75,186.0,15.0,0
-9.0,84.25,9.5,-59.5,1235.5,195.25,267.75,-3.25,0
-0.5,114.75,18.75,6.25,1199.0,68.75,321.75,-12.25,0
-13.0,64.25,18.5,-25.75,1184.5,20.25,354.5,-25.5,0
-10.5,32.75,12.75,-28.75,1179.75,-160.0,305.5,-71.75,0
-14.75,-95.75,14.0,-45.0,1324.75,-511.0,212.0,-103.25,0
-20.25,-122.0,3.0,-53.0,1647.75,-700.75,160.0,-130.25,0
3.0,-65.75,5.25,-34.0,1983.0,-821.5,76.25,-116.0,0
-3.25,-78.0,-9.5,-33.75,1918.5,-795.5,7.5,-121.0,0
-23.25,-62.5,-18.25,-17.5,1850.0,-707.75,-2.25,-161.5,0
-27.25,-71.25,-13.0,-43.25,1390.0,-658.0,-12.75,-182.75,0
-20.5,-87.75,-20.0,-9.75,997.75,-596.5,-24.5,-187.25,0
-35.75,-69.0,-10.25,36.0,672.5,-532.75,24.25,-175.75,0
-33.75,-14.75,-29.0,43.5,362.0,-350.75,134.0,-135.75,0
-25.75,-12.75,-35.0,43.5,183.5,-111.5,142.25,-75.75,0
-18.0,-15.5,-21.0,-11.5,105.25,44.75,78.0,-13.0,0
-2.25,36.5,-28.25,-16.25,199.0,166.25,42.5,5.5,0
-9.0,42.25,-34.5,-1.75,301.5,175.75,-21.25,-19.0,0
-7.25,-16.0,-33.75,-17.0,266.5,157.25,-75.0,9.25,0
-30.5,-70.75,-27.0,-17.25,225.25,264.25,-122.0,48.25,0
-22.0,-14.25,-15.5,-6.5,194.5,420.0,-126.25,67.0,0
-17.5,28.0,-12.75,-3.25,238.75,607.25,-187.0,72.0,0
-26.75,9.75,-36.25,-12.5,286.5,811.75,-217.25,109.5,0
-26.5,31.75,-28.0,-33.5,339.25,877.75,-160.75,165.25,0
-28.75,70.0,-24.25,-49.0,477.0,681.25,-109.25,227.25,0
-18.25,88.75,-31.75,-34.5,667.25,567.0,-15.25,234.0,0
-27.75,49.5,-18.5,-2.75,826.0,634.5,-12.75,110.5,0
-45.25,31.25,-11.0,1.75,796.25,549.75,-25.5,-29.75,0
-27.25,34.0,-14.5,22.75,633.75,378.5,-54.0,-156.75,0
4.25,43.5,-39.5,92.5,536.0,144.0,-63.0,-284.5,0
-1.5,53.25,-17.75,63.5,482.75,-66.75,5.0,-366.5,0
-7.0,15.25,-19.5,30.25,323.75,-197.5,28.0,-369.25,0
-1.25,-11.25,-36.25,41.25,-46.25,-411.5,112.25,-320.0,0
1.5,13.5,-16.25,55.5,-394.5,-597.25,248.75,-195.75,0
-1.25,-3.5,-12.0,132.5,-747.0,-747.75,354.0,-97.0,0
8.5,-37.0,-8.5,126.25,-978.25,-874.25,430.5,-74.25,0
19.0,-19.0,-15.25,-24.0,-1053.0,-935.25,475.5,-78.75,0
14.75,5.5,-24.5,-142.25,-1123.75,-717.0,494.25,-106.5,0
-0.75,33.75,-54.75,-178.75,-950.5,-305.75,491.0,-111.0,0
-7.0,46.0,-33.25,-184.5,-546.25,30.25,400.75,-111.25,0
-11.25,55.25,-2.0,-206.0,-75.75,267.0,353.75,-131.25,0
-15.75,87.75,-15.75,-145.25,161.75,395.25,336.5,-145.0,0
-0.25,50.25,8.0,-53.5,53.5,490.5,248.0,-95.75,0
-2.0,27.0,13.75,-58.5,-94.25,510.5,67.75,-51.75,0
-9.5,-19.0,11.0,-77.5,-101.25,442.5,-118.75,-8.25,0
-8.5,-115.75,13.5,-94.5,-67.5,353.75,-199.5,39.5,0
-3.0,-127.5,9.25,-83.5,-32.25,242.5,-239.25,67.25,0
5.25,-117.25,7.75,-81.0,61.75,151.75,-277.0,94.0,0
7.75,-37.0,6.25,-56.0,141.75,124.5,-344.25,62.5,0
7.25,16.25,12.75,20.5,198.75,103.5,-345.5,68.0,0
3.75,0.5,14.25,28.75,329.25,130.0,-323.75,94.25,0
-2.75,26.0,14.75,9.25,307.5,236.0,-334.0,93.0,0
-9.5,22.5,13.25,41.75,179.25,293.25,-343.25,44.5,0
-9.75,36.25,6.0,58.25,43.75,199.25,-378.5,-2.5,0
-13.0,35.75,4.25,4.5,-183.5,136.5,-443.5,31.0,0
0.0,33.0,17.25,-12.5,-326.25,148.5,-476.75,39.0,0
-5.25,57.5,21.75,39.75,-561.5,135.25,-428.5,-9.25,0
2.25,82.0,15.0,84.0,-754.5,355.5,-378.75,-63.25,0
13.75,80.25,4.75,98.25,-862.75,404.25,-351.75,-105.75,0
-2.25,48.25,-28.75,113.5,-1015.5,254.25,-345.0,-131.25,0
-15.0,27.25,-39.75,106.75,-1148.25,83.0,-393.75,-156.75,0
-12.5,-3.0,-21.75,-2.25,-1343.0,-201.0,-467.5,-182.25,0
-3.25,-2.75,-13.5,-51.5,-1429.25,-344.75,-420.75,-137.0,0
-22.75,-37.75,10.25,-84.75,-1508.0,-482.25,-299.25,-120.25,0
-39.0,-46.75,11.5,-191.75,-1433.25,-494.5,-205.5,-106.75,0
-38.25,-19.0,-4.5,-226.0,-1240.5,-443.5,-77.25,-24.5,0
-22.5,-40.25,-10.25,-81.0,-1000.0,-417.75,-3.0,13.5,0
-30.25,-62.5,2.25,35.0,-614.25,-327.5,106.0,43.5,0
-25.0,-55.5,3.25,90.25,-379.0,-150.75,233.75,80.0,0
-24.25,-53.75,2.0,106.75,-398.5,38.0,284.0,144.75,0
-31.75,-58.0,-1.0,34.25,-642.5,109.25,378.75,158.25,0
-26.75,-52.5,-11.25,58.25,-963.75,194.25,448.25,133.0,0
-36.0,-5.25,-3.5,45.25,-1158.0,223.75,543.75,56.25,0
-29.25,62.5,-23.0,15.0,-1101.0,239.75,654.5,30.25,0
-27.0,103.0,-19.0,-3.5,-1098.75,213.5,636.75,-8.5,0
-0.75,131.75,-16.75,-31.75,-1119.5,146.5,491.75,-95.75,0
-5.0,76.5,-28.0,-25.5,-1070.75,104.5,221.25,-51.25,0
-7.25,-30.75,-3.25,-36.75,-963.75,79.5,-18.25,10.0,0
12.0,-40.5,-1.25,-49.75,-803.75,121.5,-157.0,83.25,0
6.75,-50.75,2.5,-19.5,-703.75,79.75,-245.0,141.5,0
1.5,-94.25,9.5,-14.25,-554.0,38.0,-231.75,131.75,0
-6.5,-75.5,9.0,-49.25,-441.0,58.0,-236.5,121.75,0
-16.5,-12.5,-2.0,-22.0,-374.75,20.5,-249.5,127.0,0
-8.75,36.25,-30.5,2.25,-254.75,-2.0,-262.5,125.5,0
-20.5,19.5,-43.0,64.5,109.25,27.5,-243.75,69.75,0
-17.75,-88.0,-40.5,79.5,387.75,57.0,-174.0,-23.0,0
-20.5,-177.0,-34.25,38.25,376.5,202.75,-120.0,-105.75,0
-35.0,-131.0,-42.0,-24.0,374.5,339.5,-106.0,-54.0,0
-33.75,-41.5,-23.5,-71.75,456.25,267.5,-46.25,32.5,0
-41.0,-19.0,4.0,-27.0,568.25,159.5,47.25,105.25,0
-29.75,-51.75,-2.0,-10.75,600.25,22.25,22.5,197.25,0
-21.75,-53.5,1.0,-21.0,606.5,-146.25,28.25,263.5,0
-15.5,-25.0,0.5,-17.0,768.75,-359.25,62.25,264.0,0
-17.25,28.0,0.5,-32.25,847.0,-516.25,101.25,153.75,0
-20.0,53.0,4.75,-30.5,743.75,-626.5,156.75,122.5,0
-16.25,58.25,-10.75,-10.25,840.5,-598.75,202.75,70.0,0
-3.5,62.5,0.75,-38.0,818.0,-525.75,241.5,-24.75,0
4.75,50.25,-0.75,-56.0,811.25,-614.5,290.25,8.25,0
4.75,24.75,-21.5,-53.5,869.0,-639.25,348.5,37.75,0
-11.75,-16.5,-23.0,-73.75,947.5,-473.75,422.0,75.5,0
-25.0,-5.5,-14.25,-58.75,1088.25,-173.5,475.75,123.75,0
-7.75,4.25,-5.5,-39.5,1091.75,108.0,478.25,138.0,0
-4.75,-37.5,-5.75,-24.75,1101.5,176.5,480.0,141.75,0
-15.25,26.0,-3.0,11.5,961.75,183.5,432.0,105.25,0
-20.0,35.5,-7.25,123.0,767.0,228.5,444.25,62.5,0
-16.5,-10.5,-9.5,105.25,462.25,270.25,450.0,31.75,0
-20.0,45.75,-7.25,-29.75,203.25,324.25,450.0,20.5,0
-27.0,12.5,-7.0,-83.75,-19.0,269.0,283.75,-6.25,0
-25.5,25.75,-9.0,-127.5,-170.75,181.25,122.75,-11.75,0
-5.25,44.75,-4.25,-125.0,-145.0,19.75,201.25,8.5,0
4.0,60.75,1.25,-119.5,-240.75,-26.5,72.0,14.25,0
5.25,112.5,-9.75,-73.0,-424.0,234.0,-23.25,14.75,0
8.25,85.75,-24.25,-66.25,-477.5,467.0,52.0,23.5,0
-3.0,70.75,-24.25,-94.75,-392.5,393.0,56.5,77.75,0
-2.75,71.75,-23.0,-29.75,-330.25,195.5,62.0,162.0,0
-3.25,40.75,-4.75,43.75,-224.5,-62.25,61.25,213.0,0
-16.75,7.75,3.25,27.75,-228.25,-241.75,90.0,214.0,0
-14.0,2.5,-14.75,-13.75,-239.0,-198.25,148.0,252.25,0
-1.0,31.0,-14.5,-10.0,-171.0,-153.5,65.0,302.0,0
-16.0,63.5,-4.75,-33.25,-147.0,-75.25,-71.75,289.75,0
-17.25,77.75,-19.25,-37.5,-184.75,-101.75,-119.25,229.5,0
-12.75,108.75,-37.25,-55.75,-344.0,-160.75,-216.0,129.25,0
-8.25,65.75,-25.25,-18.0,-503.25,-99.5,-264.25,51.75,0
4.0,25.25,-13.75,55.5,-680.0,33.75,-305.0,3.5,0
-4.5,39.25,-10.75,32.0,-704.5,81.75,-346.75,-55.0,0
17.25,-53.25,-11.0,1.25,-689.25,-1.25,-308.0,-23.25,0
32.0,-102.75,0.25,-2.75,-658.0,-52.0,-266.0,52.25,0
8.25,-85.25,3.25,15.0,-547.75,-106.5,-272.0,135.25,0
1.5,-37.0,2.25,44.0,-195.25,-74.75,-352.75,227.25,0
5.0,-18.0,5.0,35.75,211.5,6.5,-376.5,322.75,0
4.5,-28.25,2.75,-7.25,458.25,119.25,-349.5,412.5,0
-6.5,21.5,0.75,-37.25,457.25,257.25,-351.25,383.0,0
-17.5,21.5,-15.0,-14.25,219.0,366.75,-277.25,383.25,0
-32.5,-24.5,-34.5,8.25,65.25,406.25,-113.0,484.25,0
-23.5,13.5,-30.25,4.25,18.5,319.0,13.5,474.25,0
-18.5,29.75,-22.5,23.5,58.0,263.25,165.25,427.25,0
-30.0,-36.25,-30.5,17.75,135.0,233.5,268.75,323.5,0
-29.5,-65.5,-22.25,28.25,152.75,192.75,332.25,198.0,0
-34.5,-59.25,-12.75,23.0,173.0,147.0,514.25,157.25,0
-24.0,-18.75,-18.25,-30.5,320.75,-7.75,465.25,127.0,0
-21.5,-12.5,-10.0,-72.75,353.25,-11.5,283.5,159.0,0
-13.0,-56.0,-7.5,-119.0,185.75,161.5,377.5,199.75,0
-0.75,-81.0,-10.25,-102.0,65.5,106.0,331.25,254.75,0
2.0,-82.0,-24.0,-57.0,-55.25,-28.75,354.25,343.25,0
0.0,-65.75,-35.0,-56.5,-60.5,-11.75,547.5,352.25,0
1.5,-75.25,-3.5,-60.25,-87.5,-49.25,620.5,288.75,0
-0.75,-72.25,18.5,-11.0,-118.5,-175.0,619.5,237.75,0
-3.25,-53.0,5.5,23.25,-105.5,-409.0,580.0,248.25,0
-11.0,15.75,-19.5,37.25,-63.75,-518.75,550.5,301.0,0
-8.5,113.75,-18.75,53.0,-19.25,-361.0,483.25,354.75,0
-9.5,132.25,10.0,35.75,-27.25,-318.25,471.5,308.75,0
-7.0,148.25,14.0,73.5,-22.75,-413.25,440.75,284.75,0
-4.25,186.0,17.25,136.75,3.0,-447.5,431.5,201.5,0
-9.25,122.0,24.0,113.25,141.25,-496.0,505.25,73.25,0
-15.0,-12.5,16.0,77.75,186.5,-318.75,565.5,-18.0,0
-18.75,-90.75,29.5,0.5,217.0,-138.75,513.5,-122.0,0
-10.25,-158.25,34.75,-81.0,192.5,5.75,438.75,-129.5,0
4.5,-112.75,19.25,-87.75,71.5,130.0,368.5,-158.25,0
9.25,8.25,-1.75,-135.5,-74.5,115.25,288.75,-155.75,0
-12.0,-8.25,-0.75,-126.0,-272.0,253.75,286.5,-67.75,0
-16.5,-64.0,1.5,-135.5,-277.25,406.0,226.5,0.25,0
-22.0,-120.25,-10.0,-165.5,-196.75,376.25,122.25,-25.25,0
-16.5,-163.0,-11.75,-93.75,-50.5,215.5,-14.25,-166.75,0
-7.25,-174.25,-30.0,-56.25,0.0,160.0,-82.75,-348.25,0
-7.0,-167.0,-20.75,-43.25,-160.25,114.5,-5.75,-514.0,0
2.5,-87.25,-12.75,-42.75,-283.25,133.0,-219.0,-697.25,0
-12.25,-5.75,-23.5,-42.25,-335.0,264.75,-504.25,-826.5,0
-9.5,31.25,-11.75,-40.0,-361.75,353.75,-517.25,-571.75,0
-5.75,38.0,-7.25,-19.75,-390.75,525.0,-577.5,-335.0,0
-14.75,20.25,-1.75,-1.0,-405.25,541.5,-496.25,-316.75,0
-7.25,0.5,1.75,15.75,-409.5,60.0,-519.0,-183.75,0
-9.5,-15.25,-7.0,48.5,-408.0,-324.5,-415.5,-202.5,0
-8.0,1.5,-17.5,57.5,-427.5,-246.75,-344.25,-170.75,0
-22.0,134.75,-8.0,27.5,-345.0,-69.25,-378.25,-104.0,0
-28.0,223.0,0.25,-12.25,-219.5,63.5,-315.75,-89.25,0
-16.0,185.25,2.25,-36.75,-108.75,89.25,-478.25,-63.5,0
-35.75,191.25,14.0,3.75,-34.25,-28.75,-360.25,-143.25,0
-27.25,132.25,1.25,48.0,-61.0,-240.25,-343.75,-123.75,0
-5.75,92.5,-4.5,20.25,-129.75,-497.5,-374.25,-92.25,0
-22.75,79.25,-12.0,27.75,-254.75,-722.25,-327.75,-28.25,0
-32.75,38.0,-12.25,22.0,-311.5,-702.75,-296.75,28.25,0
-35.5,-5.25,-10.75,-2.5,-280.0,-540.25,-398.25,-10.0,0
-41.0,-68.5,1.5,-19.75,-218.5,-273.0,-361.75,-6.25,0
-32.5,1.0,-1.0,-126.0,-111.25,33.5,-171.0,16.75,0
-11.5,39.25,-3.0,-121.5,-63.25,164.25,-192.75,98.75,0
19.75,23.75,-6.75,45.75,-82.25,297.25,-117.75,77.5,0
22.5,44.0,-8.25,64.75,-120.75,477.5,-202.0,38.25,0
9.25,2.25,26.25,27.0,-126.0,525.25,-134.0,3.25,0
14.0,-47.25,18.5,-7.75,-133.25,465.0,-57.5,-86.0,0
1.5,-68.5,17.25,-44.25,-188.75,427.0,-3.5,-87.5,0
0.25,-33.5,9.0,-33.25,-259.25,355.25,-5.75,-108.25,0
3.5,29.5,-12.25,-5.25,-310.5,244.25,-44.0,-91.5,0
-8.0,42.25,-12.5,98.75,-272.25,196.75,159.5,-31.75,0
-17.75,36.0,-29.25,129.75,-285.0,121.0,238.5,-27.5,0
-23.25,17.75,-42.25,65.25,-272.25,22.75,197.5,-12.0,0
-27.25,-20.25,-37.75,-27.25,-175.75,-91.75,34.75,63.75,0
-30.5,-14.25,-16.5,-143.0,-202.25,-173.75,88.25,48.25,0
-27.0,30.75,-1.25,-163.75,-350.5,-191.5,198.0,-32.0,0
-39.25,23.75,-1.5,-120.25,-502.75,-151.0,107.75,-73.5,0
-55.5,-16.75,-24.0,-132.0,-576.25,-96.5,64.5,-54.0,0
-31.5,-10.5,-20.0,-99.25,-404.75,-130.0,-18.5,28.75,0
-5.75,18.25,-13.5,-56.75,-40.0,-113.0,-44.25,77.25,0
8.0,-12.5,-14.0,-63.5,297.25,191.0,-14.0,143.5,0
2.75,-38.25,-16.75,-40.0,484.5,479.25,-20.5,300.5,0
4.25,-4.25,-30.0,-32.75,407.75,567.75,-20.75,436.0,0
-2.5,6.5,-36.0,13.0,247.0,526.5,51.5,380.25,0
-7.25,-15.75,-28.0,62.75,136.25,136.75,61.5,225.5,0
-5.5,-7.25,-1.5,61.75,171.5,-263.25,28.25,0.5,0
-10.25,6.5,-6.75,46.75,305.5,-583.0,-75.75,-253.0,0
-14.0,-6.5,-5.5,29.0,376.25,-834.75,-115.75,-326.0,0
-23.0,-46.0,-16.0,33.5,432.75,-980.0,-89.0,-301.25,0
-26.75,-55.75,-24.25,23.75,373.0,-978.0,-148.75,-312.75,0
-28.0,-11.75,-18.75,-4.0,356.25,-925.25,-125.25,-308.25,0
-19.25,36.5,-31.0,-9.75,389.75,-670.0,-78.0,-182.0,0
-0.75,60.75,-23.0,-46.25,339.0,-375.5,46.5,-133.5,0
-17.25,29.0,-27.0,-78.25,305.0,-45.75,16.25,-130.25,0
-29.75,36.5,-22.5,-45.5,282.25,374.0,-83.75,-67.25,0
-21.75,17.75,-14.5,-51.75,305.25,593.0,-38.75,62.0,0
-8.25,-22.5,-6.0,-14.0,284.25,737.0,30.5,176.75,0
-3.25,-37.25,-14.25,4.75,277.0,829.25,11.0,143.0,0
-15.75,-73.0,-29.5,-27.75,272.0,725.5,-15.5,147.75,0
-4.0,-98.75,-19.25,-41.25,195.25,476.5,34.5,44.5,0
-5.25,-114.25,-2.0,-55.75,163.5,347.75,16.25,-1.75,0
12.0,-59.75,22.75,-41.75,176.25,323.75,3.5,21.25,0
17.25,-52.25,14.25,-44.0,175.75,221.5,-23.5,-91.25,0
-3.25,-5.5,2.5,-22.25,221.0,220.5,16.5,-126.5,0
3.5,-26.0,10.25,-27.5,321.5,206.75,49.0,-110.25,0
-15.5,-104.75,15.5,-46.25,385.5,159.5,79.5,-173.75,0
-4.75,-17.25,-4.25,-17.75,412.0,116.75,62.25,-212.0,0
10.75,28.75,-20.25,42.5,449.25,83.75,65.0,-156.75,0
-4.75,81.0,-20.5,41.25,421.25,15.0,170.5,-117.0,0
0.5,78.5,-23.75,20.75,337.0,-12.0,189.25,-16.0,0
-17.75,63.25,-2.0,43.0,393.5,-39.25,218.75,189.25,0
-30.5,54.5,-11.75,13.0,403.0,-56.75,192.25,345.75,0
-17.25,36.25,-4.5,-17.75,329.75,-64.75,175.25,367.75,0
-6.25,41.75,-2.25,-48.25,303.5,-63.5,139.5,351.75,0
8.0,8.75,-9.25,-18.5,270.25,178.25,79.5,324.25,0
7.75,6.75,-10.25,-20.25,279.0,277.75,75.25,274.5,0
-8.75,-15.5,-19.25,-81.0,273.0,194.5,107.0,217.25,0
-22.0,-29.75,-15.0,-101.75,268.75,52.5,159.0,120.25,0
-21.0,-28.0,-4.0,-90.75,172.0,-95.0,115.5,37.5,0
-15.75,-54.5,-5.25,-29.5,63.0,-71.5,39.5,-109.75,0
-11.5,-91.25,-20.75,-20.0,4.25,-91.25,-15.75,-138.0,0
-18.5,-74.5,1.25,-1.0,-88.75,-146.0,-83.25,-140.5,0
-7.25,-59.75,6.25,65.5,-126.5,-292.0,-124.25,-190.5,0
-1.0,-61.25,6.5,106.25,-124.5,-420.5,-129.25,-171.75,0
5.0,-36.75,10.75,63.75,-66.75,-336.0,-153.0,-124.5,0
8.0,-6.25,-3.5,15.25,-59.75,-158.0,-177.25,-37.25,0
-10.25,11.0,-6.25,25.0,-76.75,-87.75,-290.5,-10.0,0
-2.75,-10.75,3.0,15.75,-1.5,-39.75,-260.25,162.0,0
3.5,1.25,16.0,13.5,-2.0,91.25,-79.5,395.25,0
0.25,30.0,0.25,15.75,-70.25,220.5,-53.0,392.5,0
-1.0,68.75,-8.75,56.5,-140.25,311.5,-75.25,218.75,0
-4.5,110.0,-11.5,68.5,-170.0,245.75,-132.75,47.5,0
-7.0,139.0,-18.25,-8.75,-173.0,287.25,-202.5,-27.75,0
-24.75,128.5,-25.25,-1.0,-200.75,292.25,-194.5,-62.5,0
-22.5,89.25,-24.0,79.0,-186.75,160.25,-138.5,-112.25,0
-20.75,54.25,-7.75,6.5,-152.0,346.5,-62.5,-115.5,0
-34.25,-24.25,-9.75,-54.5,-111.5,607.25,-16.75,-206.5,0
-29.5,-85.25,-12.0,-21.25,-35.25,388.75,-35.5,-267.75,0
-30.5,-121.0,-7.25,24.5,-26.0,14.5,-39.75,-197.25,0
-24.5,-97.0,-12.0,22.25,-67.75,-189.0,-56.25,-189.5,0
-23.75,-41.0,-12.75,-86.5,-52.25,-306.25,-62.5,-90.5,0
-20.0,-10.5,-4.0,-85.75,-88.75,-275.0,-19.0,80.0,0
-14.75,-27.75,-4.25,-98.0,-104.25,-316.25,-13.25,196.0,0
-14.0,-80.75,-14.0,-111.75,-100.75,-388.25,-61.0,209.0,0
1.75,-35.5,-9.0,-90.75,-160.5,-449.75,-12.75,20.75,0
-11.0,35.0,-13.25,-96.25,-178.5,-439.75,73.5,-111.75,0
-22.25,21.75,-9.0,-102.75,-112.0,-410.0,48.0,144.5,0
-16.25,-266.5,-5.0,-142.5,-24.25,-444.25,-79.5,522.5,0
7.5,-632.5,46.25,-281.0,-121.75,-566.25,-193.25,477.75,0
230.0,-522.0,381.0,-519.25,-462.0,-448.75,-82.0,430.75,0
701.75,-433.0,602.25,-608.75,-464.0,-74.5,-61.75,520.5,0
631.0,-503.75,357.25,-575.0,-338.75,182.25,-53.5,572.0,0
504.25,-304.5,271.5,-561.25,-406.75,206.0,-17.5,518.0,0
539.75,-201.0,172.0,-503.5,-432.25,259.0,-50.25,451.75,0
460.25,-20.75,25.25,-549.0,-353.0,322.0,-8.5,395.75,0
384.25,67.5,39.75,-514.0,-320.75,383.5,-30.75,418.0,0
243.0,100.75,-15.25,-235.5,-33.5,419.25,-7.25,254.0,0
66.0,125.25,-2.0,25.5,121.5,368.0,8.25,161.5,0
54.5,137.75,-79.5,-171.25,121.0,152.75,50.25,65.5,0
59.5,267.25,-100.75,-428.0,-4.75,-23.0,85.0,-8.25,0
26.75,302.25,-111.25,-109.75,150.5,-164.0,128.75,-151.75,0
-155.25,381.75,-123.0,-59.0,156.0,-320.0,130.75,-327.25,0
-108.25,367.75,-129.5,28.5,55.0,-322.25,93.5,-503.0,0
-205.0,251.0,-139.25,320.25,230.25,-119.0,97.0,-789.5,0
-441.0,148.0,-108.25,748.5,564.0,130.25,82.75,-1097.5,0
-646.5,97.75,-105.75,1016.25,961.25,434.75,110.0,-1304.0,0
-910.0,72.0,-120.75,963.5,802.5,687.25,89.75,-1043.5,0
-862.25,155.25,-282.0,902.5,630.25,766.5,93.25,-781.25,0
-760.75,257.25,-333.0,862.25,603.0,804.5,112.75,-683.75,0
-734.25,408.75,-455.0,771.0,532.25,1020.25,176.25,-693.25,0
-689.5,737.25,-633.25,750.75,437.0,966.75,369.5,-762.25,0
-544.75,691.25,-424.5,623.0,294.75,788.75,463.5,-765.5,0
-418.5,594.75,-377.0,540.75,96.5,705.0,299.5,-593.5,0
-308.25,606.0,-315.0,390.75,-47.0,502.5,268.5,-334.0,0
-247.0,450.0,-210.0,306.75,-150.25,385.5,258.75,-92.0,0
-175.75,289.5,-191.25,256.25,-105.25,281.5,154.75,128.5,0
-119.5,196.0,-96.0,218.5,-138.0,120.5,132.0,323.0,0
-49.0,172.25,-109.25,209.5,-101.25,-85.0,60.25,431.25,0
8.0,122.0,-40.0,81.75,-108.25,-332.0,58.75,459.25,0
45.0,34.75,-19.0,-22.5,-206.0,-463.25,10.25,453.75,0
69.0,20.75,10.0,-115.5,-262.5,-451.5,-9.0,312.5,0
76.25,-46.25,51.0,-95.75,-284.75,-230.5,-26.0,244.0,0
85.0,-73.25,71.75,-129.0,-208.5,-217.25,-56.5,182.5,0
95.25,-84.75,105.75,-164.25,-145.0,-125.5,-75.75,213.75,0
111.75,-70.0,98.25,-181.25,-141.0,-38.25,-84.0,217.0,0
128.75,-98.75,101.0,-246.0,-159.75,-17.25,-69.5,141.75,0
143.5,-189.75,86.75,-263.75,-231.25,100.0,-119.25,65.5,0
151.25,-210.75,91.0,-283.75,-297.0,103.0,-127.5,-20.25,0
135.75,-260.5,104.25,-252.0,-230.75,116.0,-127.5,54.0,0
128.25,-253.75,130.25,-254.5,-164.5,45.75,-79.25,122.25,0
135.75,-256.0,124.25,-279.25,-210.25,66.0,-81.25,124.0,0
123.75,-271.5,127.75,-246.5,-191.5,147.5,-73.25,110.25,0
118.5,-239.75,136.0,-214.0,-183.75,32.25,-5.5,170.0,0
129.25,-266.75,115.25,-221.5,-226.25,-98.0,-31.0,252.25,0
144.5,-258.0,107.25,-223.75,-150.5,-141.5,-13.75,232.75,0
132.5,-241.5,89.5,-224.5,-153.0,-231.0,-4.75,219.0,0
117.25,-169.0,97.75,-209.5,-181.0,-332.25,-34.75,188.75,0
109.25,-61.75,89.75,-172.25,-124.75,-414.5,-46.5,163.75,0
108.5,-32.5,81.5,-165.0,-154.25,-475.5,-42.25,132.25,0
114.75,-12.5,78.75,-162.25,-182.25,-287.75,-30.75,-52.5,0
96.0,-58.5,62.5,-137.75,-211.75,-11.0,-30.5,-177.75,0
80.0,-145.5,58.5,-130.0,-189.5,134.25,-8.5,-34.75,0
61.25,-197.25,43.75,-117.5,-147.25,164.75,2.0,51.0,0
41.75,-210.75,35.0,-79.5,-88.75,192.0,2.5,2.5,0
39.75,-207.0,57.0,-85.0,-75.5,197.5,4.25,-48.5,0
33.5,-165.0,51.5,-121.5,-90.25,-75.25,28.75,-103.75,0
23.75,-84.5,38.75,-102.75,-85.5,-338.0,46.25,-152.75,0
24.5,-55.25,39.0,-54.0,-150.5,-615.75,60.75,-207.5,0
12.25,-41.75,25.0,-82.5,-158.25,-853.5,73.0,-242.25,0
5.75,-81.0,35.0,-85.5,-157.75,-897.25,77.25,-262.0,0
8.25,-130.0,29.75,-58.75,-139.25,-782.75,75.75,-243.75,0
5.75,-62.25,31.5,-76.25,-72.0,-452.5,67.25,-259.0,0
11.5,0.75,14.0,-63.5,30.75,-80.0,47.75,-259.5,0
10.25,19.75,0.5,-60.5,132.5,161.25,24.0,-180.0,0
-5.75,-7.75,6.25,-79.25,146.25,155.0,19.25,-36.75,0
-10.5,-48.0,-15.5,-81.5,136.0,191.0,39.0,65.25,0
6.0,-43.5,-14.5,-34.25,131.0,184.25,48.0,39.25,0
8.25,-37.5,-18.5,-4.5,123.0,158.5,22.0,36.5,0
-5.0,-29.25,-20.5,-18.75,107.0,219.75,48.5,65.5,0
-2.0,-53.0,-6.0,-82.75,107.0,206.5,97.75,53.75,0
6.75,-64.0,3.25,-113.75,76.0,232.5,107.5,-12.75,0
-6.5,-64.25,-2.0,-88.75,34.5,222.25,100.25,-77.0,0
-19.0,17.0,11.0,-99.0,-8.0,253.75,96.75,-58.25,0
-11.25,51.5,16.75,-98.25,7.5,256.25,108.5,134.75,0
-9.5,-10.5,17.75,-85.25,35.75,299.75,88.25,404.75,0
-21.75,-1.0,22.75,-64.25,41.25,325.5,85.25,366.25,0
-16.75,4.5,-19.25,-10.0,91.0,223.75,66.25,180.5,0
-6.25,49.25,-20.5,24.25,109.0,161.25,19.75,91.75,0
-6.25,73.5,-5.0,20.25,158.75,-21.0,-13.75,36.5,0
-11.75,122.25,6.0,29.25,221.5,-175.5,-41.0,44.75,0
-1.0,213.5,7.0,46.25,254.75,-220.0,-5.0,60.25,0
-2.5,178.5,-9.75,29.0,316.25,-187.25,37.0,75.25,0
-20.25,99.75,-11.5,55.75,333.25,-2.75,48.0,-12.25,0
-8.5,43.0,-8.25,56.25,337.0,111.0,28.25,-4.75,0
-9.5,-16.25,-27.25,6.75,329.5,132.25,1.5,63.25,0
-21.75,-60.25,-14.25,44.5,348.0,234.75,40.75,36.75,0
-9.5,-44.25,-15.0,97.25,352.75,388.75,34.5,17.5,0
-5.75,-50.5,-30.75,109.0,339.0,451.25,19.5,-15.5,0
-19.75,-35.75,-11.25,105.0,361.0,410.0,84.25,-72.25,0
-14.0,73.5,-26.25,81.0,332.0,365.0,93.25,-176.5,0
4.75,111.25,-14.25,-11.0,279.25,397.5,88.0,-177.0,0
-4.5,91.5,-17.75,10.25,252.25,423.5,15.0,161.5,0
-17.25,-133.25,-9.0,45.5,192.25,165.75,-331.0,755.0,0
142.0,-617.75,252.25,-363.25,-240.75,-415.25,-599.75,771.25,0
656.5,-558.25,571.0,-574.25,-470.25,-572.25,-396.0,659.5,0
653.75,-449.5,343.75,-689.75,-337.25,-645.75,-304.0,666.5,0
500.25,-475.25,112.25,-742.75,-339.5,-742.25,-275.5,623.5,0
537.5,-139.0,120.0,-720.5,-298.0,-516.5,-203.25,726.25,0
504.5,82.25,-58.0,-711.5,-130.0,-230.0,-257.0,721.25,0
485.5,334.75,-28.75,-597.5,-94.5,-95.5,-122.25,539.0,0
439.25,582.0,-100.0,-327.75,-85.0,24.5,-89.5,273.5,0
363.0,728.75,-102.0,-87.75,-104.75,-29.0,7.5,-90.0,0
310.5,942.0,-113.0,104.25,-43.5,-28.25,162.25,-180.75,0
97.0,826.25,-146.5,142.0,-28.0,27.0,211.5,-347.25,0
26.0,723.5,-110.5,265.0,-27.0,300.25,238.5,-483.5,0
-112.25,603.75,-157.5,302.25,110.0,457.25,213.75,-516.25,0
-181.25,455.5,-141.0,351.0,187.5,460.5,189.0,-479.75,0
-250.0,346.0,-149.25,365.25,254.75,448.25,163.75,-386.25,0
-307.75,268.5,-141.25,291.5,254.0,403.75,145.0,-228.0,0
-346.5,217.25,-148.75,330.0,269.75,314.75,117.25,-204.75,0
-395.0,98.0,-129.25,309.75,344.25,280.25,105.75,-233.0,0
-392.5,29.5,-141.0,318.5,439.75,330.25,114.25,-94.5,0
-412.25,-56.25,-135.25,341.25,477.25,201.25,141.25,76.5,0
-392.5,-123.5,-133.5,345.25,485.5,50.5,139.5,131.0,0
-396.0,-209.25,-141.25,348.75,459.0,192.0,139.25,-41.25,0
-379.75,-233.25,-107.75,314.75,435.75,279.25,163.5,-107.5,0
-372.25,-201.75,-101.5,314.25,435.5,60.0,181.25,-143.25,0
-361.25,-209.75,-82.0,325.5,453.0,91.5,174.75,-313.75,0
-341.75,-224.5,-76.75,291.0,455.75,234.75,147.0,-388.0,0
-309.0,-155.0,-65.75,256.0,438.25,243.75,113.5,-342.75,0
-271.5,-114.25,-69.75,225.5,383.75,260.5,72.75,-250.0,0
-278.25,-176.75,-45.0,195.25,310.25,156.25,70.5,-204.75,0
-266.5,-188.25,-39.0,199.75,269.0,117.25,84.25,-159.75,0
-260.25,-211.75,-36.75,174.0,266.75,158.0,62.25,-150.0,0
-235.5,-155.0,-17.5,144.5,287.0,96.0,38.25,-97.75,0
-196.5,-75.0,-19.75,117.75,291.25,91.75,-0.25,59.25,0
-201.5,-124.25,-5.5,84.5,295.75,184.25,25.0,155.25,0
-180.0,-150.25,-22.75,64.75,286.0,188.25,86.0,114.25,0
-148.75,-197.75,-10.5,87.25,243.5,149.25,96.25,94.5,0
-138.75,-280.25,1.25,92.25,154.0,109.25,132.25,-140.25,0
-117.5,-297.25,-12.5,54.5,120.5,36.5,107.5,-396.25,0
-97.5,-323.75,9.5,44.75,165.25,-61.0,94.5,-334.0,0
-75.5,-236.75,26.0,43.0,152.5,-151.0,92.25,-507.25,0
-74.75,-162.5,11.5,49.0,64.25,-39.0,62.75,-659.0,0
-63.0,-89.5,0.25,34.75,14.75,83.5,80.5,-631.25,0
-54.25,-87.5,14.5,-44.75,93.75,-5.5,66.75,-526.75,0
-36.75,-193.25,22.75,-40.25,136.0,-87.75,18.0,-412.0,0
-34.75,-191.0,19.5,-53.75,104.25,-69.0,-27.75,-286.0,0
-47.75,-169.5,21.75,-123.0,38.0,35.5,8.0,-130.5,0
-31.5,-139.5,35.0,-117.75,65.25,76.75,13.5,-72.5,0
-26.5,-182.0,42.5,-141.25,194.5,19.25,-29.75,27.75,0
-18.5,-182.25,31.75,-137.0,231.0,-2.75,-43.75,64.0,0
-17.25,-145.5,21.5,-101.5,210.5,-35.25,-32.5,193.5,0
0.5,-73.0,16.75,-121.0,17.25,-36.5,-14.25,411.0,0
23.5,28.75,2.5,-168.75,-235.25,-133.25,-24.25,504.0,0
24.0,72.75,15.25,-193.0,-284.75,-208.25,-36.5,279.25,0
28.25,188.75,20.5,-153.5,-327.0,-120.5,-47.75,17.5,0
16.0,178.75,4.5,-58.5,-360.25,-40.75,-12.75,-76.25,0
7.5,118.25,-21.25,64.0,-311.25,42.5,29.25,-65.75,0
21.75,98.75,-39.75,124.5,-239.0,112.5,53.5,23.75,0
46.25,114.0,-28.5,95.75,-148.25,137.5,27.25,78.75,0
47.0,178.25,-27.5,73.0,-76.5,121.5,6.25,203.0,0
39.0,166.25,7.75,61.75,-55.75,90.0,83.75,230.0,0
42.75,112.25,19.5,-29.0,-60.75,-31.25,-23.75,276.25,0
42.75,66.75,7.5,-50.5,-74.75,-129.0,-222.75,413.75,0
47.75,47.75,-0.5,-31.0,-115.25,-219.75,-185.75,534.25,0
58.5,43.5,-9.25,-22.0,-122.25,-385.5,-131.25,589.75,0
81.25,-49.75,-0.25,-3.75,-163.0,-429.75,-18.5,535.25,0
96.0,-122.5,-3.25,-169.5,-233.5,-261.5,78.5,443.75,0
97.75,-142.75,-7.75,-383.0,-256.75,-169.75,71.25,409.25,0
104.0,-108.25,-30.0,-419.75,-209.75,-309.5,38.5,368.0,0
112.5,-26.0,-48.0,-303.25,-127.75,-266.75,-59.75,231.0,0
173.0,-48.0,-69.25,-250.0,-27.75,-243.25,-85.5,255.0,0
244.0,-36.5,-86.0,-291.5,99.0,-230.25,-121.25,247.75,0
299.75,-19.0,-114.5,-192.25,167.25,-68.75,-100.0,-14.5,0
340.25,14.75,-115.25,-109.0,213.75,23.25,-85.75,-310.0,0
346.5,39.25,-117.25,-40.0,280.75,86.25,-95.5,-469.25,0
344.5,17.0,-135.0,17.5,309.0,81.25,-128.5,-404.75,0
343.5,51.25,-134.0,-56.0,247.5,96.0,-170.0,-290.75,0
354.0,59.25,-141.75,-67.5,185.25,141.25,-125.75,-216.0,0
346.25,70.25,-108.25,20.75,99.25,211.0,-112.25,-148.75,0
340.75,119.25,-111.0,67.5,2.25,225.75,-95.5,-271.5,0
330.75,154.75,-104.5,66.25,-73.75,151.0,-99.25,-387.75,0
277.0,135.5,-84.5,124.0,-189.0,113.5,-119.5,-385.5,0
274.5,143.0,-93.5,101.5,-276.5,43.0,-108.25,-313.75,0
272.5,170.25,-84.75,39.5,-376.5,-68.5,-54.0,-276.0,0
268.5,192.75,-96.5,94.25,-408.0,-246.75,-37.0,-392.75,0
262.75,220.75,-110.0,193.5,-409.0,-394.5,-7.25,-553.25,0
117.5,213.5,-89.75,292.0,-247.0,-410.0,112.0,-728.25,0
-355.75,153.75,-1.75,411.75,309.75,-324.25,218.5,-573.75,0
-969.75,40.75,130.0,496.75,695.75,-208.5,280.75,-416.75,0
-932.0,-26.75,206.5,472.0,622.5,-125.0,224.25,-364.5,0
-781.25,13.0,226.5,472.5,313.5,-70.0,201.0,-140.0,0
-735.75,35.75,212.5,300.0,49.0,-13.75,229.75,-35.0,0
-628.25,-1.5,191.75,241.75,-98.25,114.25,208.5,-169.5,0
-682.0,-21.25,195.0,252.75,-124.5,201.75,155.0,-127.5,0
-497.25,-36.25,163.5,66.25,-355.25,276.75,74.5,59.5,0
-308.75,-28.5,155.75,20.25,-268.25,304.25,48.75,200.5,0
-374.5,-73.0,155.0,-16.0,-282.5,198.75,30.75,375.0,0
-226.75,-90.5,127.25,-146.5,-433.75,105.25,35.5,530.5,0
-127.0,0.0,122.75,-246.25,-457.0,-4.75,67.75,675.75,0
-85.75,3.25,110.75,-229.0,-369.25,-57.75,46.5,728.0,0
-58.25,-25.25,80.0,-232.75,-366.75,-182.5,60.75,752.25,0
107.75,-39.75,69.0,-315.5,-319.0,-343.25,62.25,669.0,0
100.0,-59.5,92.5,-291.5,-148.5,-353.5,30.5,588.5,0
104.25,-54.0,72.5,-347.0,-155.0,-162.25,39.0,529.0,0
76.5,-60.75,65.75,-278.75,121.5,205.5,35.0,500.25,0
-28.5,-27.5,66.25,-306.0,91.0,486.5,-16.0,773.75,0
117.5,4.25,53.5,-417.25,-5.25,496.5,-121.0,798.5,0
95.5,34.0,50.25,-354.75,66.5,351.0,-155.75,603.0,0
60.25,0.25,42.0,-255.0,130.0,185.75,-136.0,561.5,0
-12.75,-13.25,56.0,-143.0,190.25,-95.0,-141.25,566.75,0
41.0,5.5,9.25,-180.25,21.0,-246.75,-167.5,834.0,0
194.5,43.0,-12.25,-235.75,-94.25,-355.75,-80.5,1145.0,0
272.25,143.5,1.0,-277.0,-101.75,-607.5,3.5,1027.5,0
183.75,111.75,-0.75,-215.0,190.75,-595.75,8.5,684.0,0
0.75,106.75,18.75,-233.25,113.5,-451.0,67.25,529.0,0
183.25,110.5,-21.25,-344.25,-182.5,-353.25,86.25,357.75,0
179.0,22.75,-37.25,-220.25,-95.5,-163.25,104.25,92.75,0
133.25,-79.25,-34.0,-254.75,-292.0,-68.25,111.0,-41.0,0
206.75,-183.5,-39.0,-212.25,-134.25,-55.0,180.5,-242.5,0
-97.75,-233.0,-9.75,6.25,149.75,-9.0,272.75,-395.0,0
-176.0,-236.25,3.25,4.0,-93.25,-2.5,264.25,-425.5,0
-121.75,-235.5,4.0,38.5,-132.25,12.75,277.0,-441.0,0
-164.0,-159.25,17.5,17.0,-259.0,17.25,270.5,-218.5,0
-98.5,-99.0,2.75,-49.25,-373.0,34.0,276.25,122.25,0
-83.75,-154.5,-11.0,-23.75,-373.25,67.0,303.0,379.0,0
-9.5,-174.75,-23.25,-14.25,-402.25,98.5,301.25,421.75,0
34.5,-110.0,-27.75,-54.25,-283.0,147.5,304.5,419.5,0
21.75,-36.75,-20.5,61.25,-8.75,269.5,279.25,243.5,0
-139.75,31.25,-6.0,308.25,224.0,382.0,268.5,86.0,0
-172.5,60.25,-3.25,195.25,29.25,373.0,242.0,37.0,0
-31.5,36.25,-29.25,64.25,-86.75,278.25,133.25,-88.75,0
57.5,47.25,-36.0,22.5,-132.0,138.75,70.0,-65.75,0
139.0,60.75,-48.25,-120.5,-201.5,44.25,18.5,-111.0,0
157.5,84.25,-43.5,-145.25,-105.5,1.0,11.5,-248.75,0
43.75,54.75,-27.75,-54.0,219.5,30.25,-14.0,-403.0,0
-154.0,10.25,-30.25,35.0,196.5,75.0,-120.25,-243.75,0
-62.0,31.25,-48.5,-33.75,-129.0,77.75,-236.25,-14.75,0
38.25,76.0,-59.75,-121.0,-73.0,-5.5,-361.5,-109.75,0
9.75,105.0,-40.75,-128.25,-53.75,-133.25,-375.25,-255.5,0
99.75,110.5,-60.25,-161.75,39.0,-147.25,-409.5,-417.5,0
58.5,62.75,-69.25,-6.25,279.75,-107.5,-433.75,-389.25,0
66.75,66.5,-51.5,-8.25,203.5,-108.75,-321.75,-331.0,0
173.5,109.25,-43.5,-51.75,321.0,-168.0,-301.25,-357.0,0
118.5,95.0,-32.75,8.5,426.0,-247.25,-265.75,-183.5,0
131.5,-8.25,-25.75,-47.5,444.0,-251.5,-223.75,-70.0,0
51.25,-138.75,-34.0,2.5,363.25,-156.75,-243.5,3.0,0
124.5,-101.5,-42.0,-177.75,-33.0,-75.25,-221.5,108.0,0
238.75,-103.5,-61.0,-194.5,38.0,34.75,-246.25,97.5,0
88.75,-87.0,-54.0,35.25,220.25,164.0,-248.0,243.75,0
9.0,-8.5,-48.0,154.75,107.75,197.25,-206.75,397.5,0
36.75,25.75,-46.5,215.75,-18.75,204.75,-215.25,190.75,0
-18.75,45.0,-29.25,270.5,30.0,170.25,-216.75,-163.75,0
-28.25,19.75,-32.25,134.75,-189.25,143.0,-237.0,-392.25,0
105.5,36.0,-10.75,-14.5,-142.0,172.0,-238.75,-678.75,0
6.25,15.75,-7.75,-57.0,57.75,121.5,-230.25,-602.25,0
76.0,29.5,-26.5,-245.25,-109.75,70.5,-209.25,-345.5,0
144.5,44.0,-22.5,-256.5,78.0,83.25,-217.75,-321.5,0
17.25,30.75,-13.5,-211.0,219.25,96.75,-300.0,-221.5,0
-12.0,-3.5,-9.75,-93.75,270.5,115.0,-259.75,-108.25,0
-58.0,-29.0,-7.25,-1.25,271.5,85.5,-153.5,25.25,0
-32.0,39.75,-6.75,48.75,236.25,74.5,-164.5,89.5,0
-64.0,31.75,-12.75,143.75,186.0,88.25,-211.25,151.75,0
-4.0,12.5,-12.5,43.0,-88.75,74.5,-293.0,269.5,0
109.5,34.0,2.25,-23.0,-154.25,119.5,-353.75,254.75,0
76.75,47.0,-8.0,-24.25,-12.75,173.5,-339.75,232.75,0
-20.25,64.0,-5.25,93.25,256.5,166.5,-371.75,150.25,0
-155.5,43.75,2.25,180.5,192.75,128.25,-419.5,110.5,0
-29.75,41.0,-3.0,83.75,-67.25,57.25,-419.75,32.0,0
24.5,25.25,4.25,84.25,-120.25,-19.5,-443.0,6.0,0
157.0,70.0,-36.0,-88.0,-363.25,-63.0,-442.25,106.5,0
197.5,66.25,-38.75,-59.0,7.75,-27.0,-399.5,-36.0,0
-42.75,-11.5,-18.5,-49.75,-38.0,-52.0,-391.75,27.5,0
141.75,8.25,-47.5,-194.0,-223.25,-45.75,-340.0,43.0,0
-18.75,-33.5,-0.25,44.25,162.5,33.75,-272.0,34.25,0
-46.5,-39.75,2.75,-61.25,-235.25,43.0,-248.0,135.25,0
88.0,-14.5,-12.5,2.0,92.0,112.25,-137.25,-130.0,0
-263.0,-32.5,25.25,202.0,387.0,114.25,-11.5,-205.0,0
-164.25,-13.0,-23.75,39.75,-45.5,52.75,54.0,-77.0,0
79.0,-28.0,-60.5,-31.5,-149.25,35.75,163.75,-75.0,0
103.25,-53.0,-46.75,-36.0,-56.25,75.0,318.75,-96.25,0
25.0,-31.25,-41.5,-9.75,120.0,134.25,451.0,-111.5,0
-17.25,33.5,-25.0,-65.5,44.75,128.25,601.0,-123.75,0
52.0,33.0,-9.75,-123.5,-156.0,90.75,667.5,-162.0,0
135.25,61.0,-9.5,-185.75,-286.5,66.75,740.0,-196.75,0
194.75,71.0,-7.25,-206.25,-336.25,59.75,801.25,-70.25,0
300.25,26.0,-20.5,-223.5,-464.75,29.25,761.5,152.0,0
367.5,71.25,-46.0,-195.25,-452.5,23.75,770.75,232.25,0
362.5,57.75,-73.5,-105.0,-529.75,-21.5,757.0,324.0,0
458.75,62.25,-57.75,-26.0,-504.0,-62.25,788.25,348.0,0
313.0,106.25,1.75,52.5,-217.0,-33.25,839.0,270.25,0
223.75,148.0,6.25,-5.5,-252.25,-16.75,883.25,335.0,0
241.5,230.0,-1.25,-43.75,-240.5,19.0,974.5,372.75,0
184.5,212.0,-20.75,-65.0,-237.25,5.0,982.0,297.0,0
181.25,45.0,-24.25,-130.75,-148.0,-18.5,1008.0,221.25,0
92.5,-118.75,-5.25,-131.75,-24.25,-58.0,1014.75,220.75,0
61.0,-240.25,-0.25,5.0,43.25,-92.25,1010.5,202.25,0
18.5,-331.75,28.0,11.25,182.5,-57.75,1035.75,106.25,0
-88.75,-352.5,27.75,22.0,280.5,62.25,1028.75,78.25,0
-139.5,-322.0,1.5,210.25,364.5,130.25,975.0,2.5,0
-195.75,-252.0,-18.25,301.75,447.25,139.75,953.0,-206.5,0
-267.75,-84.25,2.0,247.0,571.75,183.0,949.5,-322.25,0
-292.25,115.0,39.25,111.25,710.0,152.0,898.0,-158.25,0
-313.0,138.75,48.25,11.25,821.75,108.25,883.5,-26.5,0
-325.5,157.75,51.0,-49.25,880.0,89.5,776.5,-124.75,0
-325.75,126.5,45.25,-59.5,858.5,75.25,636.5,-226.25,0
-314.0,19.25,23.75,-78.0,801.5,75.5,665.75,-292.5,0
-299.75,-11.0,39.0,-26.0,667.75,94.75,734.75,-194.25,0
-294.5,-36.0,37.25,25.0,490.25,90.0,815.25,-207.25,0
-310.5,-34.5,24.0,64.5,342.75,76.5,894.5,-260.5,0
-294.25,-25.25,27.5,152.0,177.5,77.25,986.75,-186.5,0
-277.25,-21.75,-4.25,232.5,-32.0,70.0,1025.0,-220.5,0
-273.25,-27.75,-9.5,324.0,-206.25,85.0,825.25,-357.5,0
-255.75,-16.5,20.0,357.5,-264.75,68.75,528.25,-346.5,0
-246.25,7.5,25.75,239.0,-244.5,92.5,192.75,-218.0,0
-242.75,-22.5,-5.75,153.0,-99.0,144.5,-103.25,-210.5,0
-237.0,-45.5,-7.0,103.5,73.5,135.25,-317.0,-205.25,0
-222.75,-22.5,9.0,59.5,225.5,105.75,-402.5,-241.25,0
-207.0,-36.25,-10.75,104.0,402.5,85.5,-400.75,-204.5,0
-174.25,-44.0,-5.0,86.5,483.75,43.0,-344.75,-12.0,0
-168.75,-2.5,7.0,60.5,482.75,-3.75,-166.5,220.0,0
-161.5,-14.5,5.75,22.5,440.5,-5.25,-46.25,239.0,0
-136.75,-28.75,16.25,6.25,359.5,-23.25,19.25,37.0,0
-133.5,9.75,8.5,41.5,191.0,-37.5,3.25,-13.0,0
-114.75,-6.25,-20.0,59.5,-21.0,-17.5,-53.5,-78.5,0
-105.75,-30.5,-46.5,92.5,-158.75,30.0,-104.0,-406.25,0
-105.25,12.0,-14.25,124.75,-216.5,104.0,-194.75,-457.75,0
-78.5,10.25,6.5,77.0,-214.25,214.25,-296.0,-363.25,0
-62.25,-27.75,-25.5,13.75,-201.75,259.5,-276.0,-476.25,0
-81.5,-47.5,-17.75,25.75,-142.0,259.25,-166.25,-455.25,0
-82.5,-51.0,-9.25,-7.5,-91.5,265.5,-171.25,-488.75,0
-77.0,-36.0,-14.25,13.5,-45.5,185.25,-89.25,-467.5,0
-94.25,9.75,-16.0,50.5,47.0,87.25,74.75,-360.25,0
-133.75,33.75,-15.25,56.5,101.75,-17.5,182.5,-363.0,0
-157.0,46.0,-9.25,92.75,156.75,-196.25,215.0,-378.75,0
-208.0,41.0,-10.75,105.5,209.25,-232.5,77.0,-211.0,0
-280.5,0.5,8.0,116.25,186.0,-108.0,-14.25,40.0,0
-286.5,21.25,15.0,95.25,188.0,22.25,20.0,90.0,0
-337.25,54.25,13.25,104.25,318.0,52.25,-70.75,125.5,0
-375.5,74.0,14.75,124.75,417.5,27.75,-209.75,101.75,0
-393.75,62.0,32.25,175.25,438.5,10.0,-241.0,112.75,0
-333.5,15.0,42.25,116.5,285.5,-61.75,-167.75,246.0,0
-205.75,68.75,4.5,1.5,171.0,-135.5,-56.5,178.5,0
-259.75,101.0,-28.25,45.0,256.25,-192.25,3.25,-19.0,0
-273.75,68.0,-20.75,51.5,175.75,-132.5,68.25,-62.0,0
-210.5,48.5,11.25,42.25,-50.0,-34.75,60.0,-15.5,0
-138.0,7.75,11.75,-77.25,-316.0,5.25,-98.25,27.25,0
0.75,-38.75,-12.0,-139.0,-458.0,19.5,-293.5,68.0,0
95.5,-98.75,-40.25,-152.5,-550.0,-48.0,-534.25,173.5,0
162.25,-107.0,-26.25,-144.25,-584.5,-135.75,-704.0,250.25,0
170.5,-114.5,-26.5,-66.75,-518.0,-191.25,-767.25,201.25,0
155.5,-138.5,-22.5,-136.0,-442.25,-116.75,-940.5,180.5,0
138.0,-73.5,3.5,-148.75,-352.0,20.25,-1117.5,126.25,0
219.5,-54.75,-16.75,-256.5,-457.75,52.25,-1142.5,79.0,0
333.75,-52.75,-36.75,-293.25,-538.75,26.0,-1148.75,-54.25,0
298.5,31.0,-48.75,-111.75,-503.25,50.0,-1134.25,-65.0,0
257.25,39.0,-36.5,-37.5,-443.25,96.5,-1117.75,173.0,0
250.25,38.5,-27.75,-52.75,-418.5,95.0,-1110.5,340.5,0
270.0,55.25,-26.75,-110.25,-476.0,60.75,-1105.75,422.25,0
328.25,65.0,-30.5,-171.0,-513.5,66.5,-880.75,455.25,0
328.25,66.5,-47.5,-185.0,-497.25,47.75,-651.25,513.5,0
302.75,72.75,-51.0,-160.0,-503.75,-1.0,-516.25,558.75,0
324.75,114.5,-40.0,-156.5,-514.75,14.0,-398.0,452.5,0
297.75,134.75,-34.5,-190.5,-526.0,54.5,-293.25,431.5,0
285.25,138.75,-37.5,-277.75,-470.5,76.5,-237.5,581.75,0
309.5,149.5,-28.0,-255.0,-392.25,104.0,-218.0,642.5,0
298.25,124.75,-26.0,-135.5,-351.0,106.5,-203.5,577.5,0
267.75,60.5,-30.75,-61.25,-288.5,97.5,-175.75,502.5,0
228.25,9.75,-22.5,67.5,-250.75,89.0,-218.5,336.5,0
235.0,-33.0,-30.75,48.5,-286.5,-3.5,-206.0,-34.5,0
272.25,-21.25,-31.25,-170.75,-282.75,-39.75,-165.0,-329.25,0
242.75,-35.0,-15.5,-405.75,-233.0,-71.0,-184.25,-344.75,0
218.0,-68.25,-11.0,-501.5,-251.5,-131.0,-182.25,-266.5,0
188.25,-12.5,-12.25,-427.25,-241.5,-145.75,-174.0,-424.5,0
180.5,165.75,-20.5,-369.0,-178.75,-155.0,-182.75,-477.25,0
125.0,180.25,-23.5,-276.0,-70.5,-126.5,-262.25,-302.0,0
48.25,89.5,-29.5,-141.5,-55.0,-99.75,-321.25,-154.75,0
59.0,108.75,-32.5,-93.25,-82.75,-67.5,-348.5,-45.0,0
49.75,-11.0,-44.75,-55.75,-95.5,-43.75,-366.75,-95.5,0
54.75,-76.75,-32.25,-18.25,-132.25,-39.0,-322.5,-58.25,0
73.25,-111.5,-15.25,11.0,-167.25,-8.25,-341.0,-43.25,0
137.75,-197.75,-31.75,-22.0,-285.25,-1.75,-349.0,-7.5,0
215.0,-167.5,-42.0,-57.75,-254.75,-20.5,-371.5,81.0,0
142.5,-102.5,-38.5,-36.75,-100.0,-75.25,-487.0,60.0,0
111.5,-102.25,-26.0,-40.0,-111.0,-112.0,-552.0,113.75,0
177.5,-68.75,-34.25,-77.5,-28.25,-143.5,-584.0,33.5,0
96.5,-11.75,-33.25,-51.0,109.75,-180.25,-600.5,50.5,0
94.75,-5.75,-20.5,-60.0,61.25,-58.0,-586.25,129.0,0
108.75,29.75,-9.25,-79.0,88.0,132.5,-552.25,13.75,0
69.25,64.75,-1.25,-57.5,84.25,160.25,-549.25,-30.5,0
65.75,78.5,-3.0,-63.0,49.5,114.75,-576.25,-1.75,0
37.25,65.75,-8.25,-41.0,-1.25,98.0,-531.5,67.5,0
42.75,30.75,-13.25,-34.25,-51.5,79.0,-496.75,233.25,0
30.25,-10.0,-12.5,-26.0,-17.75,61.5,-493.5,341.5,0
14.25,-19.25,-3.75,8.5,7.25,1.75,-523.0,340.75,0
13.75,10.5,16.0,25.0,48.75,-22.25,-529.75,302.25,0
18.25,44.75,6.0,8.75,85.5,-16.25,-499.75,245.25,0
-4.25,64.0,1.25,58.25,123.5,24.75,-518.5,180.75,0
-0.25,24.5,22.5,84.75,158.0,96.75,-497.0,86.75,0
1.0,14.25,43.5,28.25,243.75,93.75,-454.0,51.25,0
-25.0,27.5,33.0,13.0,312.0,52.75,-402.5,-68.0,0
-39.0,27.5,21.0,35.25,341.0,8.0,-348.5,-298.75,0
-29.75,36.75,41.25,73.75,371.5,-21.25,-311.5,-441.0,0
-36.75,20.5,61.5,21.75,401.75,-0.75,-259.0,-170.75,0
-67.75,29.75,68.0,30.25,404.25,45.5,-271.25,188.25,0
-86.5,34.75,47.25,85.25,434.0,69.5,-220.25,352.5,0
-128.75,21.25,27.0,54.0,478.0,108.75,-110.5,489.25,0
-146.25,-13.0,41.75,54.75,512.5,144.75,-60.25,486.75,0
-183.0,-79.75,37.5,47.25,616.5,166.5,20.5,410.25,0
-207.0,-123.0,29.25,59.0,609.0,156.0,126.5,204.25,0
-233.25,-111.25,41.75,87.75,548.0,149.0,190.5,67.25,0
-277.75,-75.25,41.5,103.25,472.25,134.75,225.75,-66.75,0
-271.0,-35.75,30.25,78.0,419.75,90.75,277.25,-407.25,0
-294.5,-18.0,12.75,60.5,438.25,54.75,360.75,-671.0,0
-292.0,-34.5,19.25,95.25,385.75,-21.0,357.75,-818.75,0
-282.0,-29.5,14.0,68.25,339.0,-40.75,371.5,-781.5,0
-292.75,-53.5,-7.0,-22.75,368.5,-55.5,444.75,-335.5,0
-288.0,-52.25,-18.75,-40.5,429.75,-67.0,417.75,61.25,0
-273.5,-60.75,-9.0,21.25,356.75,-36.0,413.25,174.0,0
-256.5,-77.0,-5.5,47.5,267.25,-53.25,454.75,203.25,0
-250.75,-53.25,1.75,81.0,210.75,-46.5,483.75,163.0,0
-246.75,-66.0,8.25,97.5,174.0,-38.25,519.75,175.25,0
-244.25,-87.25,-15.25,72.75,179.25,-38.75,529.75,197.75,0
-229.5,-83.5,-4.75,60.0,203.25,-70.0,513.0,223.5,0
-215.25,-40.25,0.25,47.0,240.75,-121.75,554.75,124.25,0
-232.25,51.75,-8.5,20.5,218.0,-132.0,584.75,40.25,0
-223.5,93.5,2.5,9.75,186.5,-138.25,531.75,89.0,0
-204.0,48.75,22.0,56.5,148.75,-197.25,479.25,85.5,0
-173.25,17.0,9.0,9.5,114.75,-299.0,461.25,143.5,0
-158.0,-18.0,-14.0,48.25,29.5,-363.25,528.5,204.5,0
-129.5,-81.75,-1.25,101.5,-34.75,-301.0,521.25,223.25,0
-105.25,-145.25,-17.75,87.25,-16.5,-150.0,496.25,116.75,0
-78.75,-161.5,-12.5,84.75,25.0,-52.0,446.25,-50.25,0
-44.25,-87.75,-6.25,25.75,147.25,62.75,369.25,-173.0,0
-40.0,9.5,-10.0,-1.75,194.75,120.5,340.0,-212.0,0
-5.0,91.75,-6.0,-32.75,256.25,124.25,285.75,-127.0,0
8.0,73.0,-7.25,-37.25,281.5,180.25,279.75,-80.25,0
1.0,5.5,-24.0,-54.25,254.5,238.25,265.0,-64.0,0
11.0,12.5,-31.75,-53.5,267.25,232.25,277.25,-56.5,0
16.75,33.5,-20.5,0.75,268.25,182.75,283.75,-22.5,0
25.0,3.5,-36.25,52.5,296.75,109.75,284.25,39.0,0
33.75,10.0,-18.0,181.0,252.5,72.75,314.0,133.5,0
43.75,37.5,-17.75,259.25,235.5,63.25,360.0,203.75,0
36.75,68.0,-32.75,103.75,164.75,55.25,376.5,175.5,0
31.0,85.25,-26.25,-13.5,34.5,71.25,401.5,162.25,0
24.25,71.75,-17.75,-111.25,-36.0,51.25,411.0,57.75,0
23.25,84.75,-20.75,-164.0,-47.25,58.75,388.25,-129.0,0
10.5,91.75,-31.0,-132.5,-52.75,92.25,395.5,-146.75,0
2.5,87.0,-19.75,-91.5,-116.5,151.25,392.5,-23.0,0
5.0,89.0,1.75,39.25,-85.75,184.0,357.0,-57.75,0
9.0,92.0,12.5,64.5,-55.5,191.25,297.75,-217.0,0
16.75,69.5,-7.25,84.75,-76.25,229.75,289.75,-188.75,0
27.5,52.5,-2.75,98.75,-79.75,249.75,340.5,-70.75,0
29.0,13.0,-14.75,47.0,-76.5,211.0,350.0,-60.25,0
14.25,-80.25,-18.75,44.25,-89.75,153.5,312.25,-40.0,0
24.75,-131.0,-9.5,4.25,-85.25,148.25,288.25,-20.25,0
32.0,-144.25,-21.25,-63.5,-73.25,136.5,296.75,-25.25,0
38.75,-91.5,-4.25,-96.75,-86.25,105.5,277.25,-19.25,0
33.75,-2.5,-24.25,-92.5,-68.75,104.75,244.0,-49.0,0
47.5,77.25,-22.75,-58.25,-58.75,77.5,186.0,-25.25,0
48.75,152.25,-20.75,-60.0,-53.75,24.25,178.5,-7.25,0
57.75,97.5,-12.0,-21.75,-104.5,21.25,168.25,-42.25,0
75.0,50.0,-1.25,-40.75,-125.75,36.75,156.0,-125.75,0
62.0,23.75,-17.5,-97.25,-69.25,14.5,147.0,-168.0,0
67.75,-41.0,-19.0,-42.75,-59.75,19.0,117.25,-15.0,0
67.0,-1.25,-23.5,-52.0,10.25,44.75,108.5,71.0,0
59.25,5.75,-13.5,-53.25,69.25,56.75,72.0,-57.25,0
51.5,17.25,-12.0,-24.0,59.0,85.75,56.5,-104.75,0
44.0,67.0,-6.25,-68.75,77.0,115.5,64.75,10.0,0
42.5,65.75,-22.0,-63.5,68.75,117.25,36.5,64.25,0
40.5,28.75,-37.0,-11.0,1.75,97.75,19.25,48.0,0
36.5,-9.5,-39.75,25.75,-121.0,57.5,12.5,58.0,0
37.75,-42.25,-23.25,59.75,-212.0,9.5,-26.0,-22.75,0
29.0,-76.75,-26.5,-14.25,-207.75,-17.75,-1.25,-124.5,0
22.0,-65.25,-35.0,-38.5,-227.25,-32.5,56.75,-149.75,0
21.75,-52.75,-21.25,3.5,-250.5,-53.25,2.5,-138.0,0
11.75,-6.75,-25.5,-37.5,-186.75,-114.5,-59.5,-93.5,0
13.25,54.25,-20.75,-79.75,-181.5,-172.5,-120.25,-96.0,0
11.5,65.0,-22.75,-36.25,-194.0,-154.75,-124.5,-137.75,0
9.75,40.0,-25.25,14.25,-196.0,-78.25,-80.0,-135.0,0
13.75,37.25,-34.75,0.5,-181.0,-5.0,-30.0,-35.25,0
1.75,29.75,-32.0,4.0,-78.25,-7.75,27.25,191.0,0
-6.25,-7.5,-28.75,-20.5,-49.5,-97.25,4.25,347.25,0
7.25,-20.75,-26.75,-29.5,-135.0,-168.25,-76.75,326.75,0
-5.25,-41.75,-23.5,-10.25,-178.25,-241.5,-165.0,282.0,0
-15.5,-38.25,-20.25,-3.5,-90.75,-315.75,-207.75,162.25,0
-14.25,-16.75,-22.0,-24.75,-16.5,-302.25,-145.75,173.5,0
-20.25,57.25,-20.5,-45.0,-43.75,-257.5,-80.75,291.0,0
-23.25,79.0,-10.5,-24.25,-125.25,-199.5,-67.0,208.75,0
-18.25,48.0,-8.0,-4.0,-181.5,-197.75,-14.75,127.25,0
-18.0,46.0,4.0,-7.25,-185.0,-303.75,-13.5,76.5,0
-21.0,32.75,12.5,-19.5,-218.5,-390.0,-7.5,60.75,0
-6.75,27.75,-8.75,-42.25,-236.0,-430.75,85.25,361.75,0
-4.25,19.75,-9.25,-75.25,-251.0,-424.0,91.75,624.0,0
8.75,20.25,11.5,-52.5,-249.25,-389.0,80.75,632.25,0
18.0,17.0,9.0,-36.0,-212.75,-350.25,113.75,615.0,0
21.0,44.25,-4.5,-64.5,-109.75,-271.75,112.0,530.75,0
24.0,67.25,9.0,-76.25,39.0,-169.5,108.5,429.0,0
26.75,48.25,20.5,-58.25,83.5,-95.0,87.25,308.5,0
23.0,44.0,5.25,-30.75,75.75,-28.5,29.75,127.75,0
38.5,34.0,-3.25,-1.0,154.5,-21.75,-29.5,-71.75,0
41.5,3.25,-21.75,64.75,163.25,-64.75,-83.75,-239.5,0
46.0,-35.5,-0.25,137.75,151.5,-62.25,-179.5,-335.25,0
57.25,-43.5,15.5,99.5,172.75,-29.25,-312.25,-286.0,0
43.5,-27.25,4.25,37.25,98.0,44.0,-347.75,-49.5,0
36.75,-7.25,5.75,-2.0,68.25,56.5,-356.5,18.75,0
43.25,34.75,-10.25,-40.5,24.75,38.75,-331.0,-37.75,0
53.25,62.75,-24.75,-25.75,-84.25,32.75,-169.5,-116.75,0
36.75,51.25,-28.5,-16.5,-149.25,-4.25,-87.5,-178.25,0
52.75,62.0,-22.0,-6.25,-219.5,21.75,-106.5,-172.75,0
41.0,8.75,-48.0,-7.75,-235.75,72.5,-150.5,-161.25,0
28.5,-17.5,-57.5,-62.75,-201.25,116.5,-168.5,-45.25,0
32.5,-11.25,-47.0,-132.25,-202.25,144.25,-162.0,14.75,0
25.0,-15.5,-35.25,-159.75,-157.0,146.75,-147.5,39.25,0
33.25,-12.0,-28.0,-110.25,-143.75,174.75,-124.0,2.25,0
18.0,-16.75,-24.75,-118.25,-108.25,229.5,-95.75,-54.5,0
35.25,48.0,-22.5,-127.25,-88.75,231.75,-19.5,-104.5,0
39.5,90.0,-33.75,-124.5,-115.25,216.75,34.0,-189.5,0
23.5,63.75,-24.75,-99.5,-68.5,227.5,89.0,-114.25,0
26.5,15.0,-21.5,-26.75,-87.0,165.0,134.75,13.25,0
13.25,-52.25,-17.0,-25.0,-76.0,125.25,168.75,12.75,0
13.0,-148.0,-18.25,-14.75,-18.5,104.75,143.5,-87.5,0
16.25,-237.5,-25.0,-13.5,42.0,95.0,166.5,-142.25,0
18.0,-254.75,-24.5,11.5,101.0,134.75,197.0,-225.75,0
16.25,-203.0,-25.25,39.0,127.75,130.25,151.75,-279.5,0
19.25,-60.0,-12.25,31.5,139.75,112.25,236.25,-288.25,0
20.25,79.25,-6.25,-15.25,94.0,129.5,237.0,-307.0,0
7.5,108.5,-3.25,-42.25,46.75,169.75,275.0,-277.5,0
4.75,73.0,-16.25,-9.75,23.25,177.5,362.0,-254.25,0
11.5,44.0,-12.75,54.0,64.75,191.5,367.0,-230.75,0
8.5,28.5,-12.5,117.5,129.75,199.75,357.0,-212.5,0
-10.75,52.5,-14.75,47.75,206.0,217.75,319.0,-191.25,0
3.25,105.75,-11.5,-61.75,198.25,206.75,389.0,-191.5,0
1.0,95.5,-28.0,-131.75,135.75,138.75,486.25,-204.0,0
-19.5,47.25,-16.75,-163.25,121.25,115.0,490.75,-220.0,0
-18.25,15.5,-8.75,-130.5,118.75,85.25,371.25,-226.5,0
-18.5,-33.5,-8.75,-99.0,88.75,84.0,305.0,-240.75,0
-32.0,-99.25,-14.0,-47.5,-20.5,85.75,239.75,-253.75,0
-30.0,-138.5,-4.5,35.75,22.75,85.75,129.25,-215.75,0
-30.0,-125.0,-7.5,43.0,99.0,108.25,33.5,-228.75,0
