0,1,2,3,4,5,6,7,label
-71.0,-63.75,-472.25,-48.25,135.75,-41.0,-33.25,-89.25,1
-57.75,-44.5,-589.25,-64.25,129.75,-46.0,-47.0,-85.0,1
-49.75,-44.75,-538.25,-40.75,89.75,-51.25,-57.75,-105.0,1
-43.75,-54.0,-498.5,-30.25,-4.0,-39.25,-64.0,-122.0,1
-43.5,-40.75,-306.0,-20.75,-56.75,-49.25,-71.75,-102.0,1
-49.75,-40.75,-114.0,5.5,-67.75,-39.25,-65.5,-79.5,1
-66.0,-28.25,-161.75,-20.5,-79.5,-37.0,-50.0,-102.75,1
-83.25,-25.75,-168.5,-61.25,-52.25,-48.25,-23.75,-107.75,1
-109.5,-32.25,-98.5,-89.25,-46.0,-33.5,-34.75,-94.75,1
-151.75,-47.5,-23.5,-91.0,-18.75,-34.75,-28.5,-70.25,1
-126.5,-54.5,52.25,-86.5,-20.75,-34.0,-34.0,-57.5,1
-66.5,-51.25,94.0,-89.5,-50.5,-36.5,-44.5,-67.75,1
-18.75,-57.0,173.5,-97.75,-64.5,-32.75,-25.75,-52.5,1
49.5,-42.5,168.0,-73.75,-79.5,-22.5,-26.25,18.25,1
96.5,-39.25,179.5,-41.75,-59.5,-25.75,-13.25,98.25,1
110.5,-22.75,129.0,-35.5,-51.75,-5.25,-10.0,65.0,1
56.25,-6.0,110.5,-39.0,-65.25,11.75,-20.25,30.75,1
18.75,-0.5,133.75,-27.0,-42.25,17.75,-5.5,-7.5,1
-19.0,2.75,163.75,-5.75,-19.75,38.25,2.25,-64.5,1
-78.25,31.5,297.5,-13.5,-6.5,48.25,13.75,-84.5,1
-101.5,32.5,398.0,-16.75,-27.0,49.5,9.25,-163.75,1
-140.0,16.0,503.5,-17.25,-48.5,52.5,4.5,-214.0,1
-155.0,19.25,687.75,-14.75,-45.0,51.0,14.75,-82.0,1
-148.0,-0.5,764.75,-0.5,-49.25,57.25,10.25,64.5,1
-137.25,-1.75,303.5,9.75,-58.0,48.5,0.75,39.75,1
-106.25,-1.75,-46.5,14.25,-74.25,58.75,-2.25,72.0,1
-80.25,17.75,-70.5,8.5,-56.75,81.0,8.5,81.75,1
-82.0,25.75,-48.0,12.0,-40.75,76.75,20.25,62.25,1
-53.25,37.0,111.0,24.25,-49.25,84.5,20.75,88.75,1
-33.5,49.25,85.0,10.0,-56.0,71.25,34.25,53.0,1
-31.5,47.0,-44.75,16.0,-43.0,65.0,48.5,35.75,1
-2.5,53.25,-403.5,28.25,-40.5,53.0,47.75,53.5,1
-8.5,44.5,-629.5,29.5,-64.0,30.5,57.5,72.5,1
15.25,63.5,-572.25,36.5,-35.25,55.75,65.5,61.0,1
56.5,72.75,-286.75,28.0,-29.0,67.75,62.75,79.75,1
72.75,66.75,158.75,29.25,-30.0,68.25,65.25,24.25,1
109.0,63.25,299.75,22.0,-21.0,63.0,56.75,-14.0,1
117.25,47.75,58.75,10.25,-22.5,50.0,57.75,2.0,1
104.0,27.75,-560.0,19.75,-14.25,42.75,54.75,-12.5,1
79.75,27.0,-813.75,25.25,-15.5,40.25,52.0,76.25,1
71.5,33.75,-585.0,52.5,4.5,48.5,65.25,179.5,1
80.0,36.25,-461.75,54.0,5.0,42.0,67.5,210.75,1
69.5,50.5,-349.5,29.5,3.0,39.75,63.0,141.0,1
115.0,43.75,-165.75,13.0,-20.25,39.0,41.25,74.5,1
155.0,45.5,106.25,6.0,-30.75,26.25,27.75,30.75,1
135.75,53.0,136.75,29.25,-32.75,26.75,25.25,-118.0,1
152.75,51.25,-94.75,48.5,-50.5,26.25,13.75,-341.25,1
160.75,53.25,-29.75,60.0,-51.25,25.0,8.25,-371.75,1
154.5,39.0,402.25,59.0,-49.5,21.25,4.75,-171.5,1
154.25,17.25,708.25,64.75,-48.5,19.5,16.0,-156.25,1
179.5,39.25,536.5,58.0,-66.0,21.25,10.0,-257.25,1
199.0,52.75,156.25,34.75,-55.25,15.25,4.5,-117.25,1
150.25,54.0,-34.0,35.25,-50.0,14.0,17.0,6.75,1
109.5,61.0,-79.75,36.25,-43.5,15.75,17.25,-27.0,1
100.0,50.5,-55.0,58.0,-30.0,7.75,6.0,19.5,1
88.25,65.75,-171.0,83.25,-17.25,-4.75,-14.5,21.25,1
68.5,54.75,-288.0,61.25,11.75,-11.25,-5.75,-60.25,1
27.5,38.0,-415.25,66.0,30.0,-6.0,-4.75,-83.25,1
-30.0,23.75,-258.0,78.0,63.0,3.75,-5.25,-43.75,1
-106.5,-7.25,103.0,75.75,95.0,7.5,-6.75,-54.75,1
-165.75,-14.0,253.5,99.75,141.25,8.5,-12.0,-48.5,1
-282.5,-30.25,569.5,101.0,192.5,32.5,3.0,-3.25,1
-424.5,-44.75,783.5,93.5,240.5,53.5,9.0,8.5,1
-474.25,-58.0,415.5,67.25,267.0,61.5,2.5,19.25,1
-463.0,-89.0,59.5,9.75,288.5,48.25,-2.0,25.75,1
-450.25,-113.0,293.25,6.75,354.5,54.75,1.75,132.5,1
-461.75,-167.75,670.25,12.25,406.75,69.5,2.25,156.5,1
-439.75,-179.75,587.5,39.0,425.75,75.0,-22.5,129.5,1
-464.75,-191.0,-437.5,77.75,455.25,94.5,-48.5,122.75,1
-514.0,-222.25,-868.75,90.5,476.5,89.0,-66.0,92.5,1
-484.75,-234.25,-810.75,130.0,506.25,93.0,-80.25,84.25,1
-485.5,-271.5,-693.25,171.25,519.25,99.25,-91.5,79.25,1
-470.25,-275.25,-488.0,203.0,481.25,103.0,-100.25,95.5,1
-452.75,-214.0,-4.25,170.5,417.0,107.75,-124.25,107.5,1
-391.25,-137.25,767.0,88.75,339.0,75.75,-164.0,180.25,1
-326.5,-128.0,977.5,43.0,295.5,47.5,-190.0,216.75,1
-299.75,-110.75,584.25,43.0,237.5,42.75,-212.0,210.5,1
-225.5,-94.0,39.25,-9.0,157.0,32.75,-230.5,214.75,1
-121.5,-74.0,38.0,-74.75,89.5,20.75,-251.75,220.0,1
-57.0,-22.5,147.25,-129.5,14.5,2.0,-273.5,203.0,1
19.25,17.75,-25.5,-174.0,-29.75,-6.25,-292.75,175.0,1
77.75,77.5,359.75,-194.0,-92.0,-3.75,-317.5,142.75,1
99.5,103.75,-18.75,-184.0,-120.0,-20.0,-368.25,87.25,1
89.25,121.0,-806.0,-174.0,-121.0,-21.75,-408.25,54.0,1
136.25,139.25,-916.75,-214.25,-156.75,-20.75,-429.75,90.0,1
189.25,150.25,-772.25,-220.25,-151.5,-26.75,-441.0,209.25,1
182.25,135.25,-65.25,-159.75,-141.5,-10.25,-438.0,221.75,1
153.75,99.75,83.75,-146.75,-165.25,-11.0,-437.25,196.0,1
157.75,87.5,103.25,-188.25,-190.0,-26.25,-428.75,178.75,1
199.5,88.25,91.0,-227.0,-225.75,-23.75,-454.75,194.25,1
254.5,106.5,-308.5,-266.75,-285.5,-23.25,-494.75,199.25,1
329.75,116.25,-424.25,-298.25,-343.0,-45.25,-553.75,170.25,1
465.75,153.25,-450.75,-373.0,-377.5,-58.25,-628.75,144.0,1
540.5,162.0,49.25,-365.25,-333.75,-46.5,-725.0,-9.25,1
482.25,127.75,659.5,-332.25,-281.25,-37.25,-864.0,-16.0,1
459.5,153.25,390.0,-293.5,-224.25,-29.75,-912.0,113.0,1
376.75,141.5,-327.0,-230.5,-140.75,-20.25,-871.75,112.25,1
242.5,90.75,-566.5,-144.75,-60.75,9.5,-777.75,57.25,1
106.0,39.75,-630.0,-28.5,12.25,30.0,-651.0,4.25,1
-5.75,-13.0,-306.25,16.75,63.5,43.0,-593.0,-57.25,1
-81.5,-48.75,0.5,56.25,93.75,47.0,-684.25,-64.5,1
-135.0,-83.0,133.75,93.0,99.25,41.75,-783.75,-109.0,1
-134.75,-30.25,170.75,77.25,52.75,44.0,-826.0,-161.75,1
-90.25,10.25,190.75,77.75,6.5,46.75,-781.5,-208.75,1
-102.25,4.0,509.0,110.75,-14.75,47.75,-655.5,-185.25,1
-131.75,30.0,619.5,71.75,-45.25,52.25,-445.5,-134.0,1
-104.75,6.25,511.5,68.25,-38.5,55.0,-143.75,-142.75,1
-95.5,2.75,684.5,50.5,-78.25,31.25,247.5,-114.25,1
0.0,28.0,570.75,-41.25,-132.75,2.25,809.5,-130.25,1
82.25,40.75,-114.5,-83.25,-140.25,-10.75,1030.0,-115.5,1
120.75,48.5,-476.5,-122.0,-154.75,-28.75,1018.5,-25.0,1
197.0,58.5,-290.25,-190.0,-202.75,-31.0,1010.0,48.5,1
338.0,112.0,266.75,-289.75,-248.5,-34.0,994.75,64.5,1
463.25,154.5,46.25,-352.75,-274.25,-50.0,981.0,113.75,1
581.5,219.75,-614.25,-448.5,-351.25,-68.0,960.0,191.5,1
582.5,250.0,-851.0,-502.25,-407.25,-89.75,944.25,259.5,1
520.75,304.75,-957.75,-535.0,-451.25,-117.5,925.5,327.25,1
473.5,368.5,-513.0,-488.0,-411.5,-125.25,909.75,362.25,1
449.75,355.0,-227.75,-447.0,-377.25,-112.25,912.5,341.75,1
407.0,315.0,-117.5,-436.5,-351.25,-103.75,910.75,331.75,1
377.25,244.25,-3.75,-368.5,-218.0,-71.25,934.0,302.75,1
345.75,177.5,42.75,-288.0,-110.5,-31.75,938.5,198.25,1
224.0,90.5,122.75,-216.25,20.75,-11.5,944.75,127.25,1
59.0,31.5,-24.75,-137.5,162.75,9.25,957.0,157.75,1
-46.0,3.5,10.75,-70.75,284.75,33.75,951.75,253.25,1
-160.0,-46.5,57.5,-13.5,352.75,52.0,926.75,221.0,1
-219.0,-88.0,139.25,16.5,389.5,71.25,672.0,140.75,1
-272.25,-144.75,421.25,14.25,436.0,84.5,388.5,119.75,1
-273.75,-177.75,682.75,25.5,483.75,93.75,134.25,54.5,1
-234.5,-209.75,636.0,62.75,510.0,116.25,-96.75,11.0,1
-276.25,-219.75,433.0,110.0,547.75,126.5,-308.0,-19.25,1
-395.75,-219.5,353.5,132.25,571.25,136.75,-470.5,-99.5,1
-579.5,-248.5,200.25,130.25,563.25,134.75,-600.25,-144.5,1
-616.25,-274.0,156.25,164.0,540.5,121.0,-682.0,-45.25,1
-564.25,-281.5,119.0,183.5,470.5,95.75,-731.0,-98.75,1
-539.5,-266.5,46.0,198.0,361.25,67.25,-747.0,-228.5,1
-583.0,-253.5,58.25,218.25,254.25,45.25,-719.5,-208.25,1
-694.75,-219.75,-15.75,274.75,166.75,23.75,-663.0,-189.0,1
-748.25,-181.75,0.25,308.75,72.25,30.5,-597.25,-137.0,1
-822.25,-154.5,200.5,302.75,-20.5,19.25,-512.0,-140.25,1
-735.5,-85.5,489.25,325.5,-114.25,8.25,-437.5,-112.5,1
-565.0,-62.0,539.5,341.25,-183.5,-1.5,-395.75,-130.0,1
-483.0,-49.75,415.5,361.75,-221.5,-19.5,-395.5,-206.5,1
-422.5,-4.25,171.75,361.0,-252.0,-32.75,-448.5,-254.25,1
-332.75,5.25,-130.0,349.75,-235.25,-43.5,-502.75,-308.25,1
-177.75,42.75,-306.5,331.25,-221.75,-34.0,-561.75,-336.0,1
-60.25,64.25,-247.25,301.5,-173.5,-41.25,-626.5,-379.5,1
118.25,46.5,-70.0,278.0,-109.5,-26.25,-689.5,-305.75,1
320.5,44.25,43.25,254.0,-81.0,-19.0,-750.75,-209.5,1
366.25,31.5,147.5,218.0,-6.25,6.5,-787.25,-149.0,1
390.5,33.25,23.0,203.0,19.0,44.0,-815.75,-119.0,1
351.75,29.0,-176.75,181.5,29.75,50.5,-848.75,-134.75,1
205.5,26.25,-277.25,148.0,37.5,75.5,-834.0,-156.5,1
218.25,17.75,-281.5,140.0,37.0,81.75,-803.75,-235.75,1
361.25,-33.25,-267.5,135.75,62.75,84.5,-758.25,-182.75,1
436.75,-40.0,-384.25,103.25,56.75,92.75,-689.75,-52.5,1
332.25,-26.25,-361.5,89.5,81.5,97.75,-605.0,-26.25,1
183.75,-32.75,-350.25,92.5,96.75,108.0,-526.0,5.5,1
106.25,-32.0,-446.0,59.0,88.75,94.25,-453.0,34.0,1
38.75,-28.0,-400.75,32.25,91.75,92.5,-399.5,39.5,1
40.0,-22.5,-272.5,10.0,97.5,107.25,-370.75,65.75,1
96.25,-16.5,-17.5,-19.0,86.5,90.25,-342.25,39.75,1
122.0,-18.75,-142.25,-34.75,56.25,85.25,-331.75,6.0,1
199.25,-16.5,-366.5,-32.25,73.25,81.0,-310.5,-23.5,1
254.0,7.0,-143.0,9.5,71.5,73.25,-310.0,-69.5,1
197.75,14.0,143.0,38.0,55.0,71.25,-310.25,-75.0,1
164.0,19.25,238.5,18.25,57.0,65.5,-296.75,-5.5,1
150.0,14.75,140.75,-9.25,50.25,57.25,-274.25,49.25,1
166.25,-16.0,110.75,-35.75,45.5,68.75,-267.0,34.5,1
180.0,-43.0,-58.0,-71.5,32.75,84.0,-254.5,26.75,1
172.25,-50.5,-126.0,-94.0,18.75,73.75,-228.0,26.75,1
171.5,-56.25,-137.5,-101.5,16.0,77.5,-194.75,-32.5,1
127.0,-75.5,-158.0,-98.75,52.0,91.75,-161.25,-19.25,1
124.75,-82.5,-37.0,-91.5,74.5,100.5,-133.0,106.25,1
144.0,-86.25,33.25,-100.5,85.25,103.0,-103.0,170.5,1
134.5,-98.0,71.75,-125.0,104.5,102.0,-91.0,159.5,1
298.25,-91.5,-65.75,-139.25,115.5,122.0,-76.0,146.75,1
555.75,-75.0,-75.5,-132.0,135.75,128.25,-63.5,44.75,1
487.25,-56.25,-96.75,-125.25,176.25,126.75,-59.5,-83.25,1
285.5,-51.0,-154.0,-125.0,202.5,128.0,-45.5,-85.5,1
197.5,-40.5,-141.75,-122.0,190.5,96.75,-49.0,-0.5,1
-28.75,-36.25,-171.0,-121.25,189.0,87.75,-52.0,26.25,1
-86.0,-23.0,-111.5,-116.25,166.0,80.5,-42.75,-20.25,1
-63.75,-2.75,-88.0,-118.75,147.75,58.0,-13.75,-64.75,1
-118.0,7.25,-53.75,-105.5,115.75,57.25,4.5,-48.0,1
-138.75,33.75,-31.75,-73.75,74.0,50.5,21.5,60.5,1
-23.25,51.75,-72.25,-90.75,37.25,31.5,34.5,59.75,1
198.75,54.75,-218.25,-79.75,-6.75,10.0,40.75,23.0,1
209.75,71.0,-265.0,-63.0,-40.75,-9.0,53.5,-3.25,1
153.75,84.25,-195.25,-68.0,-115.5,-34.5,34.5,-87.0,1
9.75,92.0,-61.75,-36.75,-147.5,-25.5,26.0,-144.5,1
-102.75,105.0,20.5,-32.5,-167.75,-15.5,16.5,-191.75,1
-60.0,99.75,-110.25,-23.75,-226.25,-11.75,-7.0,-142.5,1
-24.75,91.5,-142.5,6.75,-239.75,-30.0,-16.0,-90.25,1
-14.0,88.25,-184.5,1.75,-242.0,-55.0,-21.0,-42.75,1
-15.75,83.75,6.75,15.5,-238.75,-25.5,-22.25,0.0,1
-96.5,83.25,176.75,30.5,-236.25,-54.0,-28.25,-39.25,1
-190.5,72.75,195.0,10.5,-264.25,-83.5,-41.75,-10.0,1
-118.25,59.75,272.5,-2.0,-271.5,-63.25,-56.75,-35.25,1
-93.5,30.5,199.25,-17.5,-290.0,-65.25,-52.75,-80.0,1
-104.25,-5.25,173.0,-15.25,-294.5,-65.0,-40.0,-42.75,1
22.25,-10.0,113.75,-0.75,-273.75,-72.5,-39.5,-36.5,1
107.75,4.25,146.5,-3.5,-271.5,-61.0,-42.0,-18.25,1
41.0,7.0,176.0,-20.25,-232.75,-51.75,-43.75,-10.75,1
-36.75,-2.25,124.25,-56.0,-202.25,-48.0,-41.75,15.0,1
-75.25,21.75,170.75,-42.5,-192.25,-55.75,-40.75,65.25,1
-151.5,24.0,326.25,-25.75,-176.25,-48.75,-37.5,110.25,1
90.0,52.75,407.0,-29.5,-169.75,-34.0,-37.25,157.25,1
566.25,79.5,459.25,-43.75,-157.75,-28.75,-33.0,202.25,1
589.25,33.0,854.75,-44.25,-139.75,-29.75,-20.25,274.5,1
201.0,24.0,949.25,-32.25,-113.75,-37.25,-8.0,230.5,1
-253.25,35.0,581.0,-32.75,-93.0,-26.25,9.75,168.25,1
-438.0,-5.5,-475.5,-28.0,-99.25,-12.75,26.25,116.75,1
-498.5,-26.0,-965.5,-11.25,-83.25,-4.25,48.0,-38.75,1
-685.5,-32.0,-1106.75,-23.75,-65.5,-5.75,62.5,-153.75,1
-945.25,-48.0,-744.75,-40.75,-49.0,7.5,73.75,-87.5,1
-1145.75,-32.0,-409.75,-16.5,-12.5,9.0,98.75,50.75,1
-958.75,2.5,-258.5,-16.25,-17.75,6.5,105.25,84.0,1
-695.5,38.5,-250.25,-19.75,-15.25,0.5,106.25,145.25,1
-521.0,12.0,-394.5,-6.25,9.75,-10.0,116.25,108.75,1
-393.0,-0.5,-159.0,13.25,20.75,-4.75,121.25,91.0,1
-213.5,39.0,46.0,10.75,19.25,-3.25,137.75,150.5,1
132.25,74.0,293.5,-2.25,8.75,2.75,144.25,122.75,1
248.25,83.75,391.25,-1.75,25.5,6.25,162.25,133.0,1
337.75,58.25,95.0,-17.5,8.75,3.0,179.25,119.0,1
418.25,28.25,-130.75,-25.5,0.75,8.75,193.5,129.25,1
392.75,-0.5,-189.75,-27.5,21.25,9.0,203.0,138.25,1
330.25,-18.75,-118.5,-26.5,42.75,14.25,197.0,139.25,1
141.75,-34.5,-43.0,-23.75,46.5,12.5,188.0,147.75,1
-9.0,-50.75,-4.75,-39.5,47.25,15.5,177.0,157.75,1
-184.25,-60.25,140.0,-41.0,75.75,27.0,173.75,91.0,1
-269.75,-75.75,175.25,-34.25,87.75,29.0,166.5,38.75,1
-163.0,-58.0,241.75,-27.0,103.25,16.5,172.5,89.5,1
21.75,-45.75,193.75,-27.75,110.0,-2.0,186.5,43.75,1
248.25,-60.5,54.75,-39.0,119.25,12.0,194.25,-4.5,1
274.5,-50.25,-48.25,-44.25,127.25,18.75,213.5,-59.25,1
122.25,-73.25,-7.0,-44.0,125.5,6.0,228.75,-67.25,1
124.25,-95.0,110.75,-30.25,123.0,-9.75,232.5,56.0,1
178.25,-79.5,54.25,-22.25,120.0,20.0,236.0,91.25,1
72.75,-67.5,128.75,-34.5,106.0,47.75,244.25,60.5,1
-120.25,-65.0,81.25,-45.0,94.25,22.25,233.5,88.0,1
-226.0,-36.5,-42.5,-29.0,90.75,36.0,217.0,113.0,1
-149.75,24.5,-29.75,-3.75,87.0,26.0,213.5,99.25,1
-146.25,55.5,94.0,-8.25,90.0,17.0,174.0,84.5,1
-275.75,46.0,106.0,-59.0,74.75,-8.75,129.5,71.5,1
-389.0,19.75,81.0,-75.75,80.75,-4.5,104.25,44.0,1
-320.25,33.25,140.25,-75.75,90.75,6.25,80.5,25.0,1
-201.75,63.0,131.0,-66.75,74.5,2.25,59.0,-8.5,1
-215.0,46.5,139.75,-38.5,71.75,31.75,46.25,-57.25,1
-206.5,29.0,199.5,-34.5,61.75,26.5,38.75,-24.75,1
-144.5,8.75,295.75,-20.0,58.0,26.25,14.0,45.25,1
141.25,15.0,65.25,-5.5,67.0,18.0,29.0,27.25,1
334.0,36.0,-268.0,13.5,67.5,28.25,24.75,10.75,1
333.5,22.75,-321.25,9.5,81.75,24.5,6.5,-9.0,1
458.75,30.25,-264.75,23.75,91.5,23.5,7.25,-40.75,1
358.75,23.5,-171.5,20.75,90.75,36.0,-9.0,-39.25,1
144.25,8.0,-61.0,-1.5,86.25,27.0,-31.0,-19.5,1
49.0,17.0,-17.0,-2.75,88.25,36.0,-62.25,16.0,1
-73.0,49.5,4.0,-17.5,104.25,37.0,-83.0,43.75,1
-33.75,78.75,55.5,-5.0,116.25,47.5,-93.25,40.0,1
-9.0,46.25,15.0,3.0,117.75,51.0,-99.25,-5.0,1
-77.5,11.5,14.25,-6.25,107.25,42.75,-96.5,-14.25,1
-70.75,1.0,106.0,-11.5,107.75,53.75,-94.75,-64.5,1
41.5,16.5,247.75,-5.5,119.5,57.0,-90.0,-93.75,1
181.25,17.25,278.25,-14.0,118.25,36.25,-102.5,-75.75,1
266.0,-8.0,94.25,-27.0,99.5,8.25,-113.75,-61.5,1
280.0,-25.25,-35.25,-32.25,89.25,0.75,-105.0,-58.25,1
165.25,-14.25,-80.25,-29.75,81.0,-3.5,-103.5,-70.5,1
-19.25,-1.5,-112.0,-23.5,77.25,6.0,-98.75,-66.5,1
-173.25,-8.25,-120.75,-51.5,87.25,30.5,-90.5,-74.0,1
-255.25,1.25,-14.0,-57.5,88.5,37.5,-79.5,-59.0,1
-311.0,3.75,371.25,-81.0,79.25,29.75,-54.25,-69.75,1
-245.5,2.25,686.75,-99.0,79.5,25.5,-50.25,-76.25,1
-79.25,-6.25,753.25,-47.0,79.75,19.0,-47.5,-78.5,1
38.75,-8.5,-120.5,-31.0,86.0,24.5,-57.5,-64.5,1
65.25,14.0,-1213.25,-26.0,95.5,26.5,-73.75,-77.75,1
32.75,2.5,-1318.0,-9.75,108.25,20.75,-81.75,-126.75,1
-27.0,2.25,-1160.0,-18.0,106.25,25.5,-100.5,-71.0,1
-148.25,17.25,-620.0,-1.5,96.0,35.0,-130.25,-59.0,1
-225.5,3.75,21.5,-12.5,100.25,31.25,-146.75,-74.0,1
-246.25,14.75,300.75,-18.5,118.5,19.5,-163.25,-35.25,1
-345.25,8.5,75.0,1.5,146.75,11.0,-178.25,-13.25,1
-351.5,-7.25,103.25,11.25,186.25,1.75,-176.5,20.0,1
-304.5,14.5,462.0,13.5,227.25,25.0,-187.0,38.75,1
-186.5,22.75,1024.75,42.0,250.0,20.0,-178.25,59.75,1
88.75,25.5,1098.75,40.5,253.25,-8.25,-159.0,18.25,1
306.0,24.5,950.0,7.0,246.75,7.25,-154.0,-35.0,1
373.5,9.75,428.5,41.0,239.75,18.0,-153.0,-49.0,1
492.0,2.0,-151.0,45.75,218.75,18.5,-152.25,-122.75,1
653.75,4.75,-676.75,51.5,212.5,16.0,-150.75,-123.25,1
694.0,-43.5,-892.0,54.75,192.75,15.0,-135.5,-88.0,1
692.25,-90.75,-798.5,34.25,164.5,18.5,-102.5,-128.0,1
532.0,-98.5,-859.0,24.75,140.75,16.25,-91.0,-45.5,1
320.75,-106.25,-876.0,19.5,123.0,19.5,-67.0,40.75,1
272.0,-56.0,-786.5,67.25,97.25,16.25,-43.0,-3.75,1
320.75,36.75,-376.25,94.5,70.0,15.0,-15.5,56.0,1
115.25,103.25,-127.0,101.0,57.75,19.25,26.75,85.75,1
-231.5,109.0,22.25,86.0,43.75,20.5,47.75,51.5,1
-400.0,90.5,66.25,33.25,37.75,14.25,77.0,40.25,1
-525.75,49.75,67.25,-13.75,20.0,11.25,97.5,14.5,1
-540.0,38.75,127.5,-27.5,4.25,21.5,108.0,43.0,1
-495.25,28.5,66.25,-36.75,0.5,24.0,110.75,57.5,1
-410.5,10.75,70.25,-49.0,-14.5,5.75,121.25,30.5,1
-349.5,-8.75,30.5,-34.75,-30.5,12.25,105.75,24.0,1
-240.25,-39.25,63.0,-32.25,-49.75,11.0,96.75,72.25,1
-123.75,-4.5,176.25,-36.75,-71.5,10.0,110.5,71.75,1
-86.5,10.75,256.5,-57.0,-86.5,16.75,111.75,67.5,1
-33.25,37.25,371.25,-72.75,-99.0,19.0,98.75,106.75,1
-1.25,48.5,365.75,-75.0,-95.25,18.75,88.5,137.5,1
25.75,12.5,256.0,-70.75,-103.0,21.5,108.0,209.25,1
-1.75,-9.0,193.25,-61.0,-109.0,20.75,113.75,217.75,1
-4.75,-24.75,105.25,-69.75,-107.75,20.0,126.0,210.5,1
19.5,-18.25,52.0,-82.0,-102.0,33.5,132.25,195.5,1
-48.75,-3.5,81.5,-96.25,-87.0,34.5,133.25,169.25,1
-92.0,-4.0,116.0,-90.0,-84.5,39.25,130.0,122.75,1
-91.75,-33.5,142.25,-74.5,-74.75,39.25,127.0,60.5,1
-62.5,-39.0,21.5,-74.0,-74.5,43.0,141.0,-37.0,1
-5.75,-22.75,-170.25,-50.25,-67.75,39.5,131.0,-71.5,1
17.25,-16.0,-244.25,-42.75,-72.5,50.0,125.5,71.25,1
16.0,-27.0,-245.0,-55.0,-77.5,55.75,129.25,78.75,1
47.25,-30.25,-138.5,-40.5,-76.0,52.75,133.75,38.5,1
107.75,-21.0,-74.5,-24.75,-83.75,50.25,142.25,68.75,1
138.25,-37.25,-29.5,-22.25,-74.5,34.75,144.0,159.0,1
151.25,-41.25,-4.0,-19.5,-75.25,41.25,131.0,197.25,1
182.75,-40.0,-25.75,-40.0,-67.5,14.5,130.0,149.25,1
161.25,-28.0,-12.0,-50.75,-54.25,7.25,120.75,147.25,1
84.75,-15.0,10.0,-58.0,-37.75,38.0,111.5,89.0,1
24.5,-16.25,128.0,-61.75,-34.0,28.25,116.0,52.5,1
9.25,-7.0,195.75,-51.25,-33.25,34.75,101.5,-65.25,1
12.0,-10.0,224.0,-45.75,-17.0,39.75,79.5,-86.0,1
14.5,2.0,193.5,-41.75,-3.25,32.0,64.5,-3.25,1
7.75,13.25,257.25,-34.25,-11.0,53.75,59.25,-20.25,1
33.25,29.25,335.25,-26.0,-8.75,46.75,45.0,-18.25,1
45.0,32.5,71.0,-17.0,0.25,41.0,35.25,33.75,1
36.5,14.75,-229.75,-8.0,-11.25,31.5,26.25,28.5,1
31.0,17.75,-531.0,-16.75,-13.0,11.75,23.25,6.75,1
20.75,20.5,-485.5,-17.25,-24.25,8.0,23.75,13.25,1
26.25,17.25,-319.25,-20.25,-29.25,9.0,23.5,-8.25,1
4.75,12.5,-217.25,-11.25,-28.75,17.0,30.75,10.0,1
-21.25,15.25,-171.25,-5.5,-28.0,16.5,31.0,-11.0,1
-14.5,35.5,-226.25,-17.0,-9.25,19.75,19.0,-15.25,1
-6.5,26.5,-30.5,9.25,11.75,17.5,12.25,-11.25,1
-25.75,0.25,-19.75,6.25,3.0,18.75,6.25,-18.0,1
-1.5,-8.5,20.25,-31.25,-9.5,36.0,0.5,-13.25,1
-2.75,-20.75,53.25,-50.75,-7.75,23.25,9.0,-54.25,1
-27.0,-29.25,350.0,-39.25,4.5,25.25,4.0,-78.75,1
-28.75,-33.5,620.0,-31.5,0.0,32.5,6.75,-60.0,1
-28.0,-25.25,332.25,-32.0,-6.5,29.5,16.75,-11.5,1
-31.75,-27.5,129.75,-12.5,21.25,10.75,27.5,-40.75,1
-57.0,-27.75,-283.0,1.5,43.25,0.75,15.0,-76.5,1
-45.25,-18.25,-560.75,-3.75,38.5,15.75,-0.25,-50.5,1
-38.0,-10.25,-529.5,-3.5,26.25,8.25,21.25,-54.75,1
-32.0,5.75,-550.25,-2.5,20.5,15.5,13.5,-39.0,1
-32.5,0.75,-439.5,-19.0,0.25,20.0,14.0,-41.5,1
-37.25,-11.75,-302.25,-5.75,-14.75,8.25,7.75,-43.0,1
-10.75,-11.0,-223.25,25.75,-11.75,16.0,2.0,-39.75,1
13.5,-2.75,-260.0,36.75,-29.0,11.5,2.0,-36.25,1
-14.75,-0.75,-136.5,37.75,-35.5,-0.25,-11.5,-39.75,1
-59.0,4.5,-142.25,36.5,-39.25,5.5,1.0,-27.0,1
-92.25,-5.0,-194.0,14.0,-38.75,11.0,-11.0,6.75,1
-113.75,-15.25,146.25,-17.5,-36.0,11.75,-9.25,11.0,1
-112.5,6.5,777.0,-14.0,-34.5,14.75,-11.75,60.5,1
-113.5,12.5,1104.25,-6.75,-12.0,16.75,-13.75,100.25,1
-113.25,1.5,553.75,-21.5,8.5,5.75,9.5,98.25,1
-109.0,-6.5,-41.75,-21.0,24.25,13.25,11.75,19.0,1
-109.25,0.25,-353.25,-10.75,22.5,8.25,13.0,-55.5,1
-105.25,14.75,-455.75,-16.0,32.75,3.0,29.0,-55.5,1
-100.0,3.0,-294.25,-7.5,38.0,5.75,34.0,-143.5,1
-92.25,-1.5,-205.5,0.0,37.25,10.5,39.25,-191.0,1
-60.25,16.0,123.75,-3.0,45.0,8.0,43.25,-53.0,1
-47.75,1.0,368.5,14.25,28.25,21.75,30.0,34.25,1
-68.75,0.0,219.75,24.75,23.75,25.75,26.25,30.75,1
-72.25,10.5,3.75,5.5,-3.25,11.25,21.5,78.5,1
-83.25,19.25,87.0,-4.25,-17.5,10.5,2.75,80.0,1
-102.75,32.25,241.5,-12.75,-30.25,11.75,-8.0,99.75,1
-130.25,33.25,290.0,-30.5,-31.75,16.0,-10.0,142.75,1
-146.0,28.25,411.75,-33.0,-18.5,3.0,-4.75,180.5,1
-99.75,3.0,523.0,-36.5,-30.75,13.0,0.0,203.25,1
-102.25,-3.75,302.25,-51.5,-15.75,16.25,-8.0,174.75,1
-103.25,-8.75,-35.0,-42.25,-19.5,10.0,-17.0,179.25,1
-36.75,-28.25,-160.25,-43.5,-26.0,10.5,-16.25,175.0,1
2.75,-26.25,-322.75,-40.75,-35.75,12.75,-16.0,146.75,1
42.75,-29.75,-231.5,-19.25,-32.75,28.25,-31.25,80.5,1
93.5,-35.25,-214.0,-6.25,-25.5,31.75,-24.5,3.0,1
91.75,-52.25,-152.5,-5.0,-32.5,44.25,-27.75,37.75,1
73.5,-34.0,158.5,10.5,-25.0,43.75,-11.75,62.5,1
81.5,-28.25,460.75,26.0,-32.25,53.25,9.75,123.75,1
75.25,-8.25,514.0,38.75,-35.25,53.75,16.5,188.25,1
25.25,33.5,135.75,33.5,-54.5,22.25,47.75,183.5,1
-44.75,25.25,-197.25,-0.25,-70.25,6.25,46.75,227.0,1
-129.0,38.5,-401.25,2.25,-108.0,-14.75,34.75,202.25,1
-143.75,55.0,-337.0,12.25,-131.75,-22.75,39.75,147.0,1
-122.75,62.0,158.0,15.0,-131.25,-3.25,36.5,106.5,1
-107.0,80.25,1000.25,-2.25,-112.75,9.75,42.75,39.5,1
-42.25,96.0,971.75,9.0,-65.0,2.25,49.25,-22.0,1
10.75,85.0,697.75,38.25,-40.5,16.5,54.0,-22.5,1
70.75,60.75,-723.25,33.5,11.0,34.25,61.75,61.75,1
92.0,23.75,-1326.75,30.5,57.75,27.0,56.25,85.25,1
89.25,-11.0,-1250.5,5.25,91.0,35.0,60.0,83.25,1
101.75,-21.25,-760.25,-10.25,133.0,50.0,68.25,106.25,1
95.5,-13.25,-181.5,-31.25,187.0,48.25,59.25,101.25,1
95.75,-26.75,-19.5,-32.25,219.5,59.0,57.0,69.25,1
109.25,-63.0,-321.0,-18.5,255.75,76.5,67.0,54.0,1
114.25,-39.75,-640.5,-46.5,290.75,75.25,73.75,98.0,1
106.75,-25.75,-766.5,-41.75,323.5,83.5,59.25,81.5,1
108.0,-37.25,-498.0,-39.25,356.75,86.25,39.5,51.75,1
100.75,-24.5,-386.0,-37.0,334.75,75.5,20.0,48.5,1
117.75,-16.75,-288.0,-39.0,345.25,73.0,11.25,11.75,1
125.75,-2.5,10.75,-59.25,331.5,79.75,8.0,8.25,1
128.0,-3.75,149.25,-37.5,306.0,46.5,-9.25,-29.25,1
152.0,-3.5,259.5,-31.75,297.5,16.0,-18.0,-41.25,1
159.25,8.75,638.75,-35.25,269.75,26.0,-32.0,-1.5,1
139.75,34.0,819.25,-28.75,243.0,32.75,-49.75,-31.5,1
125.5,42.0,756.25,-35.0,231.5,56.75,-70.5,-18.0,1
116.0,35.5,478.25,-42.5,205.5,50.25,-74.25,9.0,1
71.5,26.75,93.0,-28.5,159.0,49.5,-62.0,-22.25,1
76.5,13.75,-376.75,-36.0,140.25,48.0,-46.5,-16.75,1
75.75,7.25,-839.25,-53.5,122.25,36.75,-19.25,-58.0,1
27.5,-12.25,-949.0,-48.0,101.5,28.25,-24.0,-101.5,1
-34.75,-30.25,-708.25,-28.25,66.0,-1.75,-25.5,-113.75,1
-87.0,-71.25,-541.25,-20.5,39.25,-26.75,-36.75,-151.75,1
-116.25,-60.5,-125.75,-22.75,26.0,-47.5,-64.5,-214.5,1
-123.75,-27.5,-95.25,-5.75,-5.0,-25.0,-105.5,-158.75,1
-107.5,-16.0,8.0,-18.0,-24.5,2.25,-141.0,-92.25,1
-90.0,29.0,127.5,-10.5,-18.5,-6.25,-167.75,-169.5,1
-65.75,18.0,109.0,1.5,-22.25,3.25,-245.25,-174.0,1
-50.5,-0.5,432.5,3.25,-41.0,11.25,-288.5,-264.5,1
-38.25,18.75,795.25,17.75,-53.0,-3.0,-303.0,-231.0,1
-22.75,15.5,782.5,0.75,-56.25,-17.25,-302.75,-64.0,1
-17.75,26.5,129.75,-23.0,-53.25,-36.5,-314.5,-68.25,1
-63.75,19.0,-565.75,-18.0,-64.75,26.0,-374.25,-60.5,1
-84.25,-9.5,-827.0,4.25,-56.5,86.25,-448.25,-49.25,1
-91.0,-40.25,-734.0,-6.75,-79.25,37.5,-535.0,-69.0,1
-111.25,-57.5,-279.25,-24.25,-70.75,22.75,-610.25,-86.25,1
-104.75,-25.5,92.75,-18.75,-54.25,20.75,-697.75,-51.75,1
-106.0,-12.25,252.5,-20.0,-103.5,10.75,-750.5,-51.25,1
-112.5,14.0,234.0,-38.75,-118.5,21.25,-791.25,-110.25,1
-120.5,37.0,93.0,-47.0,-112.0,19.25,-775.5,-112.25,1
-129.0,38.25,469.5,-30.25,-99.0,30.75,-670.5,-54.75,1
-106.0,38.75,935.25,-33.75,-80.0,33.0,-480.5,-42.0,1
-58.5,38.25,900.5,-31.5,-66.5,37.25,-238.75,-100.25,1
-36.5,43.0,656.25,1.25,-67.75,39.75,-50.75,-163.25,1
-33.75,44.5,-154.25,12.75,-65.5,43.5,59.5,-139.75,1
-37.5,68.25,-878.75,-6.75,-48.0,41.25,64.75,-75.0,1
-36.5,55.0,-893.25,-21.0,-53.25,32.25,-16.75,-94.25,1
-5.25,21.25,-676.0,-25.25,-38.75,30.0,-125.0,-83.75,1
-5.5,15.0,-296.5,0.0,-17.0,34.25,-247.25,-35.75,1
9.0,12.0,-199.5,19.25,-23.5,38.25,-327.5,-49.0,1
66.75,12.5,-39.5,8.0,-33.25,30.25,-348.0,-58.5,1
120.25,23.75,70.5,-0.75,-62.75,20.75,-310.75,-50.5,1
187.5,33.0,-33.0,36.0,-120.5,32.5,-157.25,-66.75,1
260.5,56.0,-86.25,68.5,-168.25,38.0,205.25,-64.5,1
329.25,72.5,-102.0,56.5,-206.0,27.75,780.0,-111.25,1
384.5,67.0,-75.0,65.25,-259.5,17.0,1006.0,-137.75,1
458.75,88.25,91.75,100.5,-293.5,-2.5,1002.0,-124.25,1
633.25,88.75,210.5,118.5,-326.25,-3.5,999.0,-145.25,1
628.0,97.5,12.25,148.75,-370.0,1.75,1001.5,-194.25,1
308.0,87.5,-20.75,213.5,-318.5,20.25,1031.0,-285.75,1
-140.0,-14.75,173.25,323.0,-44.75,94.75,1069.5,-413.0,1
-813.25,-213.25,457.25,528.75,474.5,218.0,1117.25,-471.75,1
-973.25,-469.0,636.5,585.5,835.75,283.75,1138.0,-474.75,1
-820.5,-543.0,625.0,524.75,756.5,258.25,1111.5,-370.0,1
-741.5,-431.0,714.75,449.25,472.75,179.5,1083.0,-160.0,1
-482.5,-323.5,617.5,282.5,248.0,93.0,1046.25,8.25,1
-122.75,-217.0,217.5,31.5,6.25,-2.0,902.25,102.25,1
-79.25,-119.75,68.5,-135.0,-126.75,-47.25,706.75,178.25,1
-85.25,-11.5,140.75,-304.5,-258.75,-56.5,483.75,257.5,1
-100.25,72.75,255.0,-383.0,-316.0,-58.0,271.5,402.25,1
-143.0,82.25,92.75,-359.25,-234.0,-20.25,88.0,405.75,1
-199.75,81.75,-151.5,-337.75,-184.75,-39.75,-59.5,387.25,1
-155.0,74.75,-115.75,-339.75,-144.5,-35.75,-176.75,366.75,1
-113.75,70.5,-185.0,-336.5,-136.75,-42.0,-268.0,346.0,1
168.5,140.75,-403.75,-422.0,-241.0,-105.25,-336.0,372.0,1
360.25,208.25,-637.25,-472.75,-276.0,-97.5,-409.75,377.25,1
627.0,222.25,-599.5,-547.5,-361.0,-118.5,-479.25,518.5,1
1570.5,310.5,-557.0,-697.5,-565.25,-163.0,-543.25,639.5,1
1565.75,383.5,-540.0,-718.5,-567.25,-185.25,-561.5,687.75,1
781.0,405.5,-365.75,-648.5,-510.25,-181.0,-550.25,723.75,1
292.5,387.25,-199.25,-586.75,-373.75,-160.75,-490.0,720.25,1
7.25,299.5,-27.75,-532.0,-163.25,-119.75,-409.5,713.25,1
-166.75,220.5,203.25,-492.5,58.0,-55.5,-323.5,686.5,1
-353.75,125.75,293.0,-466.75,240.75,-4.25,-231.25,624.75,1
-441.5,38.0,211.75,-409.0,389.5,31.0,-133.0,585.25,1
-567.25,-31.5,226.25,-337.25,502.75,36.25,-28.0,535.0,1
-850.0,-111.25,220.25,-281.5,572.25,48.0,25.75,459.5,1
-924.5,-133.0,307.25,-190.0,576.25,69.25,70.25,361.75,1
-870.5,-134.75,276.0,-101.25,520.0,64.0,78.5,235.75,1
-715.25,-134.0,155.0,-32.25,443.5,68.0,14.5,122.5,1
-627.75,-127.5,388.25,24.75,327.75,59.25,-65.0,32.75,1
-609.75,-127.0,657.0,86.5,210.75,21.0,-147.0,-29.25,1
-511.25,-104.0,622.5,143.5,58.0,-6.5,-235.5,-96.75,1
-423.25,-80.25,452.75,205.5,-77.0,-37.25,-324.25,-193.0,1
-314.25,-62.25,234.25,263.25,-164.25,-56.75,-376.5,-255.25,1
-192.0,-27.75,27.0,285.75,-187.75,-52.0,-418.0,-284.5,1
-142.25,-8.25,-73.75,281.0,-146.0,-57.25,-434.0,-311.25,1
-129.75,1.5,-274.0,276.5,-96.75,-36.25,-426.75,-368.75,1
-66.75,27.5,-344.0,291.25,0.5,-7.75,-412.75,-475.5,1
22.0,32.5,-186.0,280.0,71.0,13.75,-408.5,-490.0,1
76.75,12.5,-254.75,271.25,117.5,38.0,-382.0,-407.5,1
140.75,-1.0,-416.25,283.25,164.75,53.0,-354.75,-392.25,1
189.75,-14.25,-282.5,286.25,198.75,56.75,-328.0,-406.0,1
113.25,-42.75,-30.5,242.0,218.75,54.25,-288.5,-374.5,1
-22.5,-53.5,2.0,225.5,237.25,44.0,-253.75,-315.25,1
-36.0,-42.0,-144.25,227.0,247.5,52.0,-237.75,-200.0,1
119.75,-39.75,-230.0,215.75,250.75,80.25,-230.0,-184.0,1
201.75,-40.25,-167.5,195.5,261.5,80.75,-236.0,-129.0,1
222.25,-41.75,-77.75,177.75,265.0,92.25,-247.5,-81.25,1
318.5,-46.75,-22.5,188.25,256.25,83.5,-280.75,-84.5,1
353.25,-55.25,-11.75,167.25,255.75,75.25,-310.0,-31.25,1
353.0,-63.25,13.0,142.25,252.5,69.25,-307.0,-6.5,1
385.25,-69.75,-32.75,121.75,234.25,40.5,-310.25,28.0,1
318.5,-62.0,-15.5,95.75,233.0,70.25,-295.25,-23.0,1
143.0,-65.5,45.5,65.75,231.0,91.5,-270.75,-58.5,1
68.25,-62.5,-30.5,54.0,219.5,80.5,-232.25,-25.75,1
16.0,-67.0,-112.5,44.5,215.0,94.25,-190.25,-40.5,1
-97.5,-68.25,-195.5,31.75,206.25,96.5,-172.75,-33.75,1
-144.75,-59.75,-255.0,28.0,185.25,92.75,-154.75,-42.25,1
-26.5,-60.75,-409.75,30.75,164.5,64.75,-156.75,-69.25,1
137.5,-20.5,-485.5,39.0,140.0,14.25,-142.75,-42.0,1
127.25,-9.5,-482.0,22.0,123.5,10.0,-133.5,-1.0,1
116.75,-1.0,-329.75,-3.0,110.75,52.75,-124.75,42.5,1
138.25,-0.5,-29.75,6.0,91.75,53.75,-128.25,79.75,1
108.25,-36.0,45.0,9.5,80.25,48.0,-133.75,83.0,1
48.75,-44.0,275.75,-8.75,70.75,54.75,-116.75,65.0,1
55.5,-54.5,505.25,-5.75,64.5,50.5,-122.25,43.75,1
115.0,-72.75,627.75,-23.75,70.25,61.25,-118.0,-36.5,1
127.5,-71.75,604.0,-52.0,66.0,68.0,-113.25,-133.75,1
268.75,-54.75,53.25,-40.5,57.75,78.0,-99.0,-95.5,1
529.25,-76.5,-312.25,-56.25,63.0,78.5,-70.75,-28.5,1
456.75,-64.5,-434.0,-72.75,70.25,85.75,-48.0,2.0,1
201.5,-34.75,-525.0,-72.25,66.5,85.0,-31.75,49.5,1
124.0,-30.75,-345.75,-81.75,80.5,76.75,-25.75,111.0,1
65.0,-33.25,-344.25,-73.0,91.75,91.5,-21.0,148.0,1
244.25,-32.5,-456.75,-67.25,79.25,84.75,-29.5,96.0,1
193.75,-23.5,-458.0,-79.25,52.75,73.0,-25.5,-7.25,1
-147.25,-21.75,-321.75,-59.0,25.25,63.0,-21.25,-81.5,1
-348.0,-5.75,-122.0,-51.0,-6.5,43.75,-30.5,-41.75,1
-553.25,-8.25,-107.0,-56.75,-51.0,34.5,-25.25,21.75,1
-540.25,-23.25,-39.25,-29.25,-88.25,28.25,-4.5,57.25,1
-501.25,-19.5,236.25,-35.75,-124.5,15.5,9.5,66.25,1
-329.5,14.75,565.0,-57.0,-153.5,6.5,19.25,-4.75,1
-189.75,43.75,679.25,-57.75,-180.0,5.0,24.25,-21.0,1
-130.0,79.0,438.0,-60.75,-192.25,-1.0,24.75,51.25,1
20.25,122.5,258.0,-59.25,-203.25,-1.25,22.75,21.75,1
71.5,90.5,84.25,-59.75,-231.25,-8.75,8.0,-2.5,1
170.25,65.5,-229.75,-53.5,-243.75,-11.0,-1.5,-27.5,1
484.25,55.25,-256.75,-65.25,-252.5,-10.25,-14.75,-118.25,1
736.0,65.5,-217.25,-46.5,-257.0,-21.5,-23.5,-134.75,1
574.0,60.25,-238.5,-9.0,-263.25,-29.0,-28.0,-50.5,1
202.25,41.75,-371.25,-11.0,-280.75,-39.0,-28.25,30.25,1
-132.25,54.0,-328.5,1.5,-294.25,-44.75,-17.25,6.5,1
-296.0,59.25,50.75,18.25,-302.0,-39.25,12.5,35.25,1
-370.0,62.25,243.25,26.5,-294.5,-29.25,27.0,25.0,1
-293.0,50.5,170.75,31.5,-293.25,-28.75,18.75,30.5,1
-199.25,57.5,70.25,13.5,-288.25,-38.5,18.25,43.75,1
-211.25,35.0,-91.25,-18.0,-273.75,-28.5,12.5,35.5,1
-129.75,27.25,-264.75,-14.0,-272.5,-24.25,11.5,55.25,1
-110.0,35.0,-201.25,-9.75,-259.5,-18.5,8.0,34.75,1
-92.75,36.75,-104.25,-12.0,-243.75,-21.75,3.25,70.25,1
-51.5,60.75,15.0,-17.0,-216.5,-20.25,20.0,66.0,1
108.25,45.75,41.75,-30.0,-196.25,-10.5,37.25,94.75,1
163.0,41.5,71.0,-9.75,-182.0,-14.0,46.25,100.0,1
129.75,29.25,103.25,9.25,-156.75,-5.0,67.5,76.5,1
118.5,24.25,105.75,16.75,-140.75,-12.5,85.25,53.25,1
62.0,26.75,103.25,7.75,-109.25,-12.75,101.75,-17.5,1
-13.0,23.75,62.75,-7.25,-79.75,4.25,130.0,-70.0,1
-112.5,29.0,233.0,-2.5,-66.75,7.0,149.75,-90.5,1
-121.0,5.25,306.75,-25.5,-46.5,11.75,168.5,-6.0,1
-87.75,0.0,217.75,-45.25,-21.25,22.5,166.5,41.75,1
-47.0,6.5,119.5,-18.75,-9.75,17.0,157.25,32.25,1
-99.75,15.25,57.5,-23.75,3.5,1.25,147.75,41.0,1
-121.75,16.0,75.75,-23.5,19.5,2.75,142.25,28.75,1
-111.5,11.5,90.0,-17.75,26.75,15.25,146.25,29.25,1
-100.25,8.0,7.0,-26.25,32.0,4.75,149.0,14.5,1
-124.25,-0.25,-121.5,-12.75,41.25,-14.0,163.0,-11.75,1
-51.25,15.25,-137.5,-7.0,48.75,4.0,162.25,-22.0,1
97.5,22.25,5.0,-11.5,48.25,1.25,165.5,8.25,1
72.25,12.5,300.25,-18.75,53.0,3.25,177.75,31.5,1
72.75,13.25,171.75,-29.0,55.0,34.0,171.0,18.25,1
124.25,15.25,6.5,-33.75,72.5,30.25,168.0,48.75,1
113.5,2.0,223.0,-33.75,68.5,34.25,147.0,74.0,1
34.5,-20.75,422.0,-31.5,66.5,35.75,149.25,40.0,1
-13.75,-5.5,285.25,-24.5,83.0,28.75,145.75,-9.25,1
-71.75,41.5,-112.0,-19.75,81.0,24.5,127.0,-14.5,1
-57.75,38.25,-277.25,-26.75,85.25,24.75,111.75,29.75,1
-96.0,31.25,-371.5,-33.25,79.25,17.5,82.25,57.75,1
-304.25,-3.0,-287.25,-29.5,76.75,20.75,63.75,10.75,1
-333.0,-16.25,-219.0,-36.0,70.5,37.5,40.5,-80.0,1
-367.25,4.25,-43.25,-34.5,78.25,38.0,21.5,-28.75,1
-222.0,-11.5,71.0,-18.75,74.25,32.0,23.0,4.0,1
6.0,-33.25,23.75,-18.0,67.75,24.5,23.0,-158.25,1
-2.75,-62.75,22.75,-29.25,59.5,29.5,22.5,-108.25,1
82.25,-56.5,3.5,-35.5,49.5,32.75,29.75,39.0,1
70.0,-54.5,137.5,-34.5,49.5,18.5,19.25,72.75,1
31.75,-54.5,110.75,-39.25,31.0,12.75,6.75,127.5,1
153.5,-33.25,143.5,-50.75,41.25,38.0,6.25,135.75,1
226.5,-32.75,139.0,-50.25,45.5,58.75,4.0,182.5,1
158.25,-13.75,83.25,-62.75,62.25,52.0,7.0,160.5,1
42.5,2.25,76.5,-48.75,95.5,18.5,19.25,-52.25,1
86.0,2.25,77.5,-25.0,98.25,0.25,46.75,-168.5,1
16.25,8.0,54.0,-28.5,97.75,-14.25,51.0,-165.5,1
-166.75,-4.75,-0.25,-17.75,101.5,-41.25,57.75,-246.75,1
-224.25,-5.75,49.75,-11.0,122.75,-8.0,71.75,-214.75,1
-238.25,8.25,43.75,-5.25,141.25,31.5,57.0,4.0,1
-260.25,3.25,80.5,-27.0,153.75,42.0,39.0,54.0,1
-309.5,1.25,43.75,-36.5,176.0,46.0,57.25,98.5,1
-211.5,-12.75,-60.25,-14.75,184.0,47.25,51.75,109.5,1
145.0,-8.5,-102.75,-13.0,194.0,42.75,24.5,96.75,1
391.25,-1.75,-79.5,-18.5,202.25,27.25,26.25,146.75,1
199.75,6.0,-29.75,-41.5,197.75,42.25,5.25,117.0,1
-27.25,0.0,123.75,-43.75,208.0,65.5,-8.0,86.25,1
-178.25,-1.5,149.5,-28.5,211.0,41.75,-48.25,71.75,1
-226.25,37.25,-58.75,-32.0,199.75,23.25,-98.75,103.25,1
-163.0,30.25,-92.0,-35.0,198.25,29.75,-106.0,82.5,1
-50.75,4.25,-188.25,-38.25,195.0,20.75,-118.75,43.5,1
83.75,-4.75,-264.0,-30.0,190.25,19.0,-116.25,44.5,1
122.25,9.25,-272.75,-32.0,181.0,11.0,-110.25,30.5,1
20.25,13.75,-224.5,-37.5,161.5,24.25,-101.0,-32.5,1
-150.25,-3.25,-78.75,-32.75,139.5,20.25,-94.25,-60.0,1
-190.0,5.75,99.75,-10.0,122.25,1.0,-105.0,3.5,1
-170.75,10.75,444.75,9.25,99.25,7.25,-124.0,8.0,1
-68.0,39.25,280.25,6.5,78.25,4.0,-139.0,-16.0,1
1.75,21.75,-237.75,7.5,62.75,19.0,-126.0,-12.75,1
-3.75,-2.5,-516.25,-7.0,42.5,15.5,-126.25,-12.5,1
-48.5,3.25,-648.0,-19.5,33.5,1.25,-118.0,14.25,1
-103.75,-0.25,-440.0,-27.75,11.25,16.75,-103.25,-7.5,1
-59.25,-9.0,-241.5,-28.0,15.75,-0.25,-84.25,-24.0,1
11.75,-23.0,-157.0,-1.75,19.0,7.0,-66.25,-30.0,1
102.0,-29.0,129.25,-7.25,14.25,32.0,-58.25,-21.75,1
182.5,-48.5,491.25,-52.25,17.0,24.0,-42.75,-10.25,1
267.0,-35.25,727.75,-54.5,6.25,26.0,-55.25,-6.25,1
242.75,-36.75,685.0,-49.25,-1.0,38.5,-55.0,27.75,1
72.25,-27.75,651.0,-35.25,-8.0,37.75,-55.0,18.75,1
-151.0,5.75,516.25,-27.25,1.5,20.5,-64.5,36.0,1
-223.5,-0.5,136.0,-69.0,0.25,12.0,-56.0,-32.5,1
-343.75,-6.75,-95.5,-74.0,-1.75,11.25,-46.5,-75.5,1
-424.75,-36.25,-231.25,-64.25,6.25,6.75,-35.0,-76.75,1
-286.25,-75.25,-228.75,-39.25,2.25,7.5,-11.0,-138.5,1
-141.0,-108.75,-228.25,6.75,12.5,-1.25,2.5,-110.0,1
78.25,-111.75,-518.25,35.25,2.5,4.0,26.0,-9.75,1
343.5,-12.75,-785.5,56.5,9.75,-2.25,51.5,56.75,1
607.0,85.75,-555.25,86.75,11.0,-5.5,46.25,35.0,1
665.0,111.25,-261.25,94.25,-5.75,32.5,66.5,40.5,1
599.0,138.0,-229.0,80.75,4.25,40.25,60.75,67.75,1
485.75,150.0,-265.0,89.75,-6.25,16.75,38.75,58.25,1
333.5,121.5,-311.0,86.0,-8.75,25.75,20.0,51.0,1
272.25,97.25,-255.0,77.0,-8.0,34.0,13.0,58.25,1
159.0,74.75,-10.5,56.25,-9.75,22.5,20.75,67.0,1
85.25,44.5,73.75,28.5,-11.25,16.5,17.5,65.0,1
-47.25,23.25,126.0,18.25,-13.0,17.75,19.5,76.75,1
-175.25,7.5,192.5,0.75,-0.5,35.75,26.0,106.5,1
-197.75,1.75,209.25,14.0,0.75,41.0,40.0,129.0,1
-281.5,-8.0,95.25,13.0,18.75,35.75,36.0,146.25,1
-347.75,-14.5,75.5,-22.25,25.25,19.75,33.75,125.5,1
-356.0,-24.75,112.25,-24.5,9.0,13.0,44.25,16.75,1
-332.0,-31.75,92.75,-27.25,19.25,23.75,50.25,19.75,1
-257.5,-29.25,135.0,-41.5,-1.5,24.75,55.25,50.25,1
-203.0,-42.25,107.25,-56.0,-22.25,35.5,52.75,-2.0,1
-92.25,-50.75,188.0,-65.75,-38.5,35.0,61.0,-3.25,1
48.75,-36.25,214.5,-50.25,-39.0,32.25,75.75,73.75,1
137.5,-3.75,146.5,-62.25,-1.25,39.25,86.25,138.0,1
192.25,17.75,115.5,-79.25,-8.25,32.0,94.75,136.25,1
167.0,-6.5,108.0,-83.5,-18.25,38.5,96.75,135.0,1
155.25,-30.25,132.25,-83.75,-15.5,34.5,89.25,107.5,1
53.25,-12.25,146.5,-53.25,-12.0,28.75,84.0,70.5,1
-88.25,5.0,178.0,-63.0,-5.0,37.5,81.25,18.75,1
-180.5,15.5,222.5,-73.25,-7.25,36.75,85.0,-5.0,1
-304.25,1.75,320.75,-59.75,-3.0,47.0,90.5,59.25,1
-312.5,-2.0,395.75,-42.75,10.75,54.0,86.5,114.0,1
-240.75,2.5,295.25,-36.0,20.0,47.0,85.25,112.25,1
-111.25,-14.5,105.0,-47.25,7.75,42.75,92.0,104.75,1
89.25,-15.75,-52.5,-49.25,6.25,43.75,89.75,84.25,1
220.0,-32.75,-291.0,-61.75,9.25,47.75,85.0,34.0,1
276.25,-36.5,-370.0,-58.75,11.75,48.25,86.0,33.25,1
296.0,-10.75,-232.75,-43.25,12.75,64.25,74.75,55.0,1
205.25,-4.75,31.25,-44.5,22.5,51.75,67.25,51.0,1
91.25,7.25,32.75,-34.75,15.5,38.75,52.75,94.5,1
20.75,1.75,-145.75,-22.0,-3.0,33.75,34.0,142.25,1
-20.5,-4.25,-175.25,-25.25,3.0,30.5,17.25,121.0,1
-21.25,-10.0,-80.5,-26.0,-7.25,30.5,7.0,28.75,1
-25.0,-28.25,55.25,-26.5,-14.25,12.5,3.25,-30.5,1
7.75,-37.5,-224.75,-11.0,-14.5,5.0,5.25,-18.5,1
-15.25,-19.75,-392.25,13.25,-13.75,17.5,-1.75,-150.0,1
-88.75,7.0,-281.5,8.25,-7.5,24.25,-12.25,-224.5,1
-82.5,-25.25,-17.25,-0.75,-5.0,3.0,-0.5,-164.5,1
-68.5,-22.0,146.75,-31.5,-1.75,28.5,-3.0,-150.5,1
-59.75,-6.75,-99.0,-19.0,4.75,35.75,-12.0,-108.75,1
-96.0,-1.75,-264.75,-0.75,17.0,20.75,-7.25,-2.5,1
-133.75,5.25,-424.5,-27.75,19.25,30.75,-7.25,-9.0,1
-144.5,7.0,-473.5,-38.75,6.5,23.25,-6.75,18.25,1
-130.0,55.5,-427.0,-50.75,-3.75,16.75,6.25,59.25,1
-89.75,67.25,-357.25,-15.0,-0.25,32.75,3.75,40.75,1
-87.25,5.75,-90.0,0.0,10.0,18.75,-7.75,7.0,1
-36.75,-43.25,-33.5,-1.0,-3.75,6.5,-11.0,-36.0,1
16.25,-21.5,244.25,9.0,-11.0,24.75,-17.0,-47.0,1
20.25,11.25,519.5,-15.25,-0.5,16.0,-15.5,-157.25,1
39.75,31.75,321.75,1.5,3.75,19.75,-22.75,-220.25,1
48.25,7.5,-67.0,16.25,5.75,9.25,-5.0,-130.5,1
61.5,3.75,-352.0,2.0,-6.0,0.25,17.0,-50.25,1
44.75,18.5,-131.0,-25.25,-16.5,7.75,16.5,-50.75,1
6.75,-21.25,-136.5,-46.0,-21.75,1.5,35.25,-55.5,1
-33.75,-18.5,-359.5,-38.0,-18.0,0.5,35.75,-56.25,1
-103.0,-14.75,-107.25,-42.75,-6.25,-5.25,31.0,-52.75,1
-143.0,-12.5,823.75,-46.25,3.5,-4.25,35.25,-40.75,1
-159.5,-15.25,1017.25,-41.25,-11.75,0.0,33.75,-53.25,1
-149.75,-12.75,447.75,-40.0,-20.75,6.0,35.5,-48.0,1
-99.25,8.25,-264.0,-32.0,3.5,6.75,52.25,-29.5,1
-84.5,-20.0,-470.0,-2.0,15.25,11.25,58.75,15.0,1
-67.0,-49.0,-516.0,2.25,16.5,10.0,56.25,21.75,1
-26.0,-72.5,-247.0,1.25,15.75,3.0,55.0,-6.0,1
4.0,-48.5,-307.5,11.0,8.0,-0.75,50.5,-19.0,1
-15.25,-7.0,-147.5,-7.5,8.25,-1.0,51.5,-44.5,1
-22.5,7.5,-156.5,-2.75,3.75,6.5,52.25,-57.25,1
8.75,17.75,-342.0,6.5,4.75,-5.25,55.75,-64.5,1
-18.5,10.0,-288.5,35.0,1.25,-4.25,57.75,-101.5,1
-42.0,38.5,-34.25,49.75,-8.5,-18.75,56.25,-86.5,1
-64.75,54.75,30.75,26.0,-13.0,-31.5,48.0,36.5,1
-64.0,28.5,38.25,7.0,-18.75,-17.0,39.25,120.0,1
-48.5,20.0,186.0,-15.5,-19.25,-11.5,32.75,95.25,1
-60.75,8.0,397.0,-19.5,-19.0,18.5,33.5,48.25,1
-53.5,-7.0,874.25,-0.5,-21.5,34.5,39.0,10.25,1
-53.0,-17.0,815.5,24.5,-29.0,29.75,37.75,-23.75,1
-72.0,-1.5,542.0,31.75,-26.25,28.25,38.0,-130.75,1
-73.25,23.5,-298.5,36.0,-16.5,14.25,33.75,-168.25,1
-40.5,16.5,-620.0,51.75,-17.75,21.75,38.75,-31.0,1
-24.75,18.0,-578.75,38.5,-16.75,2.25,56.25,9.25,1
-23.0,24.0,-431.0,30.0,-18.25,-16.25,56.0,62.5,1
-14.0,3.0,-335.75,26.0,-19.75,9.75,62.25,179.5,1
-9.0,-20.0,-123.75,24.0,4.25,24.5,62.5,60.25,1
12.5,-26.75,172.0,13.0,16.75,10.0,50.5,-30.75,1
20.25,-6.0,102.0,-10.75,32.75,1.5,45.75,26.25,1
-22.0,22.5,160.5,2.0,54.75,18.0,61.5,83.25,1
-31.25,33.75,212.25,0.5,52.0,28.25,63.0,21.25,1
37.0,19.75,127.75,-45.0,84.5,42.25,49.75,30.75,1
87.25,-0.75,-48.0,-75.5,99.5,61.75,56.25,176.5,1
101.75,-16.75,-24.0,-76.25,117.0,50.5,39.0,173.25,1
107.75,-36.5,103.75,-65.75,160.0,58.5,23.0,192.75,1
138.75,-33.25,207.5,-50.5,160.25,67.0,20.5,193.0,1
141.25,-5.5,255.0,-48.25,192.0,74.5,10.5,196.25,1
146.0,15.0,167.75,-36.25,226.5,87.25,5.5,260.5,1
152.5,19.75,47.75,-61.5,240.5,84.75,-11.5,264.0,1
120.25,7.0,-109.5,-72.0,249.0,100.75,-27.5,267.75,1
123.5,-7.0,-76.75,-60.25,268.25,95.0,-31.25,257.25,1
134.0,5.0,13.75,-55.25,285.75,82.75,-47.5,228.0,1
134.75,2.5,27.0,-27.5,287.25,80.75,-76.5,208.5,1
146.5,-7.25,-23.5,-43.5,278.75,69.75,-84.25,170.25,1
139.5,-11.5,-64.25,-39.75,264.25,62.75,-88.75,92.0,1
134.0,3.0,-110.0,-30.75,251.25,62.0,-114.25,114.5,1
117.75,26.75,-116.5,-47.5,218.25,40.25,-120.25,141.0,1
83.0,43.5,-166.75,-58.25,180.75,33.25,-122.5,132.25,1
55.25,43.0,-192.75,-34.75,139.25,36.0,-140.5,135.25,1
12.5,16.75,-106.0,-13.0,109.25,23.75,-140.25,91.0,1
-2.0,11.75,-98.0,-12.75,80.75,12.75,-171.0,90.5,1
16.75,-4.25,-50.25,22.75,39.25,10.75,-202.5,32.25,1
13.25,-34.25,-37.25,25.25,14.25,6.0,-186.5,-7.0,1
38.25,-22.0,-41.0,14.0,5.5,4.5,-191.5,-17.0,1
24.5,5.25,-22.0,8.25,-22.75,5.25,-178.75,-66.25,1
10.5,28.5,-50.5,-1.5,-72.0,2.5,-163.25,-18.75,1
3.5,37.75,-59.25,-4.25,-99.5,-7.5,-177.25,-1.5,1
-39.25,20.5,1.0,-1.0,-87.0,-13.25,-179.25,42.75,1
-31.5,16.0,22.5,6.75,-88.0,-14.0,-162.5,103.25,1
-31.75,11.75,-47.25,11.0,-98.0,-8.5,-145.0,85.5,1
-47.5,24.5,-127.25,6.0,-94.75,-1.25,-136.25,69.25,1
-58.0,42.0,-201.25,-2.5,-119.5,0.75,-112.5,-5.0,1
-67.0,36.5,-60.0,-0.25,-123.0,12.75,-108.75,-98.25,1
-71.25,44.5,110.5,-3.25,-108.5,18.0,-86.0,-167.0,1
-81.25,43.5,179.5,-5.25,-87.75,29.75,-59.0,-175.0,1
-60.75,54.75,218.25,9.0,-92.5,18.0,-40.5,-89.5,1
-50.75,59.75,106.0,14.75,-127.0,0.25,-50.0,11.5,1
-52.25,59.25,50.75,5.0,-113.25,-3.5,-98.5,13.5,1
-21.75,60.0,78.25,18.0,-98.25,-6.0,-149.25,-71.75,1
-3.0,45.25,45.5,22.75,-84.0,6.0,-233.75,-118.5,1
-18.75,44.75,-130.25,28.25,-96.75,9.25,-331.25,-129.0,1
-9.75,25.0,-225.75,36.0,-110.75,5.5,-423.25,-124.25,1
10.75,16.0,-198.0,23.0,-87.75,17.5,-422.75,-90.5,1
-1.75,26.0,-201.0,26.0,-89.75,16.75,-283.25,-111.5,1
-13.25,27.25,-156.5,32.5,-104.25,14.0,-43.5,-142.5,1
-9.75,22.25,-145.25,67.5,-93.25,19.75,240.0,-96.75,1
-17.25,5.25,-70.5,147.5,-70.75,15.25,448.0,-59.25,1
-35.75,5.75,43.0,119.5,-66.0,22.75,469.25,0.25,1
-66.0,-9.25,96.25,4.5,-77.75,20.0,335.75,-19.5,1
-101.5,-12.5,91.5,-42.75,-100.25,18.25,84.75,-48.0,1
-104.0,-16.25,-25.5,-115.5,-31.25,12.25,-220.25,-40.5,1
-105.0,-17.5,-85.5,-117.25,-5.25,-2.25,-478.5,-82.25,1
-87.25,-18.5,13.25,-55.25,-20.0,-2.5,-734.0,-95.0,1
-98.5,-14.75,92.5,-43.25,23.25,14.0,-891.0,-64.5,1
-74.5,17.75,65.25,-35.5,27.5,16.25,-864.75,-65.25,1
-7.5,26.5,-36.75,-43.5,7.25,19.5,-703.25,-39.25,1
83.25,34.5,-64.75,-11.25,-7.25,20.0,-353.5,15.0,1
168.5,18.75,60.5,-6.75,6.25,8.25,229.75,-39.5,1
111.25,-10.25,199.75,27.25,-8.5,18.0,1013.5,-83.5,1
44.25,-43.25,345.5,59.0,-22.0,18.5,1017.0,-181.75,1
-21.5,-59.25,253.75,51.5,-7.25,35.0,1019.5,-277.25,1
-94.25,-57.0,-82.25,89.75,27.0,51.75,1028.25,-233.25,1
-231.5,-98.75,-206.25,162.5,137.0,90.25,1054.5,-307.5,1
-596.5,-199.75,-180.0,306.0,395.5,154.0,1097.25,-462.5,1
-817.25,-384.25,12.0,556.0,765.5,243.25,1125.25,-561.5,1
-816.5,-547.75,371.0,602.25,766.25,290.25,1142.0,-514.75,1
-683.75,-550.5,632.25,520.25,608.25,228.0,1111.0,-310.25,1
-542.5,-416.25,753.0,459.5,409.25,161.75,973.25,-192.5,1
-463.75,-308.0,671.5,350.0,176.0,99.25,660.0,-166.0,1
-473.0,-245.5,384.5,220.75,29.0,56.0,359.5,-200.0,1
-362.25,-158.5,157.75,135.0,-104.0,35.0,87.25,-217.0,1
-275.75,-87.0,-78.5,-10.25,-223.0,11.5,-137.0,-163.5,1
-186.0,4.25,-187.75,-126.75,-280.25,-15.5,-292.25,-71.75,1
45.0,84.75,-229.0,-263.0,-360.25,-31.0,-344.0,81.0,1
332.75,143.0,-283.5,-354.25,-369.25,-56.25,-332.0,227.5,1
497.5,208.0,-209.5,-448.0,-372.75,-78.75,-278.5,325.0,1
451.5,220.5,-200.75,-523.0,-359.25,-74.25,-215.75,397.75,1
594.5,250.0,-200.0,-640.5,-441.5,-110.5,-191.5,457.75,1
840.75,324.75,-184.0,-720.5,-495.75,-121.75,-218.0,489.5,1
1076.0,341.5,-276.5,-665.5,-506.75,-134.5,-301.75,524.5,1
1462.75,378.75,-340.25,-645.75,-528.75,-159.25,-422.0,580.25,1
1285.75,458.5,-426.0,-694.25,-464.5,-169.0,-489.75,654.25,1
641.5,481.5,-440.0,-730.75,-426.0,-174.0,-479.75,687.25,1
265.75,458.25,-365.75,-699.5,-355.5,-136.5,-392.0,647.5,1
-21.0,378.25,-323.25,-672.5,-211.0,-112.5,-238.5,615.5,1
-142.0,284.75,-151.25,-596.5,-102.25,-80.75,-58.25,587.25,1
-141.75,204.5,-25.5,-483.0,35.25,-43.5,147.75,519.0,1
-103.75,156.75,-155.25,-405.75,135.75,-22.25,303.5,460.75,1
-158.0,95.5,-228.25,-319.75,262.5,10.75,433.25,412.0,1
-385.5,28.5,-74.25,-236.5,381.75,41.75,543.25,357.75,1
-431.75,-9.75,165.0,-167.25,479.5,60.5,617.0,235.5,1
-316.5,-46.5,249.75,-131.25,535.75,86.5,667.25,154.25,1
-244.75,-50.25,15.75,-125.0,593.5,112.0,665.75,182.0,1
-383.25,-84.25,-193.25,-113.5,637.75,103.5,610.5,102.5,1
-417.0,-122.5,52.0,-59.5,640.0,90.5,504.25,59.5,1
-376.25,-162.5,355.0,5.0,631.25,73.5,356.25,154.5,1
-281.25,-219.25,640.25,48.75,590.25,52.5,213.75,136.0,1
-175.25,-237.75,668.0,86.0,524.5,53.0,63.75,107.75,1
-224.5,-223.75,384.75,130.25,435.25,61.0,-59.0,62.5,1
-319.75,-190.25,280.5,166.5,352.0,67.25,-158.0,31.25,1
-408.75,-173.5,134.75,193.5,255.0,52.25,-250.25,-30.5,1
-430.0,-153.75,172.75,215.5,148.5,50.75,-307.5,-159.5,1
-432.25,-124.5,194.0,251.5,39.25,60.5,-368.75,-230.0,1
-400.25,-110.5,253.25,292.75,-69.25,51.5,-423.0,-410.75,1
-374.5,-80.0,449.5,321.75,-171.25,10.5,-463.25,-552.5,1
-375.0,-44.5,501.0,354.5,-230.25,-16.75,-488.75,-521.5,1
-239.5,-24.5,332.5,348.75,-273.5,-24.25,-491.5,-419.5,1
-24.0,-4.75,46.25,340.75,-305.25,-43.0,-497.5,-388.5,1
4.75,20.5,-155.0,336.5,-300.5,-50.0,-490.5,-316.25,1
-36.25,34.25,-334.0,318.5,-298.5,-52.25,-472.0,-285.25,1
33.5,70.5,-284.25,291.5,-265.75,-39.5,-465.75,-286.0,1
69.75,75.0,-241.25,261.25,-210.0,-24.25,-463.0,-243.75,1
59.0,35.0,-210.25,237.0,-163.75,-7.5,-453.0,-228.5,1
159.25,25.5,-167.25,199.25,-110.25,-3.0,-448.75,-239.5,1
234.0,40.0,-82.25,177.25,-75.5,15.25,-440.75,-267.5,1
424.25,32.25,-103.5,194.5,-52.0,43.25,-456.5,-183.0,1
633.0,21.25,-270.25,185.75,-20.5,45.0,-468.75,-147.5,1
475.0,24.25,-328.0,162.5,18.5,47.0,-481.75,-137.0,1
268.75,-10.5,-453.25,138.75,25.75,39.5,-479.5,-98.25,1
27.5,-25.75,-405.5,109.25,39.75,48.75,-456.0,-60.75,1
-224.0,-24.25,-362.25,108.25,57.25,62.5,-445.5,-20.25,1
-286.75,-17.25,-351.25,137.0,57.75,53.25,-409.25,-26.0,1
-235.0,-7.0,-195.75,130.75,67.75,53.5,-384.75,-29.75,1
-147.5,-24.5,-87.0,98.0,73.0,59.0,-338.25,-6.5,1
-74.75,-34.5,-8.5,48.5,74.75,66.75,-293.5,-13.75,1
-91.75,-36.25,-50.75,21.5,60.25,83.25,-253.0,6.5,1
-16.75,-40.5,-0.25,19.75,58.25,88.75,-194.0,101.75,1
132.0,-29.75,169.0,-0.25,51.25,84.5,-150.25,69.0,1
187.75,-25.5,312.75,-12.0,42.75,73.0,-126.0,-18.5,1
194.0,-18.0,308.5,-15.5,32.0,65.5,-113.25,-40.5,1
211.25,-33.0,78.75,-31.0,33.25,65.25,-118.5,-35.25,1
288.0,-57.75,-11.0,-48.25,36.25,85.75,-126.75,-52.25,1
270.75,-69.75,27.25,-61.5,40.75,93.5,-120.0,-104.0,1
383.5,-74.75,-85.25,-76.75,59.5,82.0,-106.75,-4.25,1
550.25,-57.0,-361.75,-82.5,67.5,77.75,-72.25,90.25,1
499.25,-43.5,-486.75,-80.0,86.75,76.0,-44.0,118.0,1
315.25,-43.0,-429.5,-80.0,105.25,107.75,-24.0,143.5,1
99.5,-60.25,-187.5,-81.0,125.75,93.0,9.0,106.25,1
103.25,-59.0,324.5,-103.0,154.75,65.25,29.75,103.75,1
226.0,-39.25,639.75,-108.5,173.5,70.25,40.5,80.5,1
183.75,-46.5,691.75,-87.5,187.5,83.25,55.0,161.75,1
30.25,-52.25,63.0,-76.25,201.75,79.5,55.25,217.5,1
-146.25,-51.25,-664.75,-71.75,206.5,61.0,55.75,184.0,1
-137.75,-33.5,-726.75,-65.25,178.0,64.0,68.0,199.5,1
-70.75,-9.5,-665.0,-62.25,159.75,48.25,80.0,181.75,1
-20.0,0.25,-640.0,-84.0,146.5,46.25,85.25,111.75,1
88.75,21.25,-379.75,-82.25,107.5,40.25,102.5,79.25,1
138.25,43.75,-395.75,-83.25,76.5,29.75,118.5,77.25,1
202.25,43.25,-285.5,-69.75,55.0,19.25,124.75,32.25,1
110.25,44.5,-200.75,-37.0,24.75,10.75,134.0,60.0,1
58.25,40.75,21.25,-41.5,-8.25,11.25,121.5,26.0,1
118.5,24.5,208.5,-24.25,-33.75,-4.0,116.5,-0.75,1
49.0,23.5,12.75,-7.75,-49.5,-2.0,118.25,18.5,1
26.75,48.0,97.0,8.5,-83.5,-23.25,118.25,8.0,1
48.0,60.75,112.25,10.25,-106.25,-33.75,124.25,-25.0,1
113.25,54.0,41.5,-8.25,-127.75,-39.25,123.5,-125.0,1
341.5,52.5,-61.75,-13.75,-139.5,-33.75,124.75,-111.25,1
389.75,69.0,-70.75,-22.25,-125.25,-20.5,121.0,-180.75,1
177.25,74.0,-10.25,-10.25,-127.5,-28.0,117.75,-218.5,1
48.0,53.25,-27.0,-4.5,-137.5,-20.75,116.75,-107.25,1
-76.0,50.75,43.0,14.25,-153.5,-29.0,97.25,-91.0,1
-278.75,44.25,80.25,15.5,-150.0,-29.25,90.75,-60.75,1
-343.25,29.75,87.75,5.25,-137.5,-24.0,95.5,-0.25,1
-299.75,34.75,75.25,8.25,-165.25,-25.0,97.0,59.25,1
-171.0,57.25,131.5,20.75,-178.75,-24.5,91.5,45.5,1
-100.75,67.5,69.5,3.0,-190.25,-27.75,76.5,46.5,1
-126.75,75.0,73.75,1.0,-193.75,-23.0,80.5,60.5,1
-179.0,52.25,195.75,24.0,-172.25,-22.75,74.25,33.0,1
-299.0,34.0,336.0,13.75,-169.5,-19.25,51.25,-3.5,1
-247.0,37.75,510.75,10.75,-150.0,-20.25,44.75,-31.25,1
-304.25,23.5,419.75,-16.0,-132.25,-19.25,30.25,10.75,1
-381.75,41.0,209.75,-23.5,-126.5,-15.5,24.25,7.0,1
-415.0,32.75,109.75,-32.0,-96.5,-18.0,27.5,17.25,1
-377.25,-2.5,42.25,-30.25,-87.25,-4.75,23.75,17.25,1
-161.75,30.0,169.0,-31.0,-91.75,-4.5,27.25,-4.75,1
-99.0,47.75,281.75,-40.5,-67.75,-7.75,24.0,13.75,1
-8.0,17.0,141.0,-30.75,-60.0,9.25,13.25,18.75,1
100.75,22.0,-30.75,-41.0,-63.25,10.75,3.25,3.0,1
160.75,9.0,-171.25,-7.75,-66.0,7.5,-17.0,-16.25,1
168.0,1.75,-192.0,17.0,-62.25,16.0,-37.25,-5.25,1
124.0,5.25,-332.0,5.0,-70.0,17.5,-60.75,-16.0,1
100.25,2.5,-295.0,-9.25,-59.5,19.25,-87.25,-17.0,1
-10.25,3.75,-135.25,-5.75,-48.5,16.5,-103.0,-4.75,1
-5.25,3.0,-125.5,11.75,-55.5,23.75,-117.75,-40.25,1
19.25,6.75,62.75,25.0,-52.75,22.5,-119.0,-46.25,1
-7.25,2.5,253.5,16.0,-55.25,17.25,-111.5,-18.25,1
192.0,12.75,237.0,2.0,-39.5,25.25,-99.25,27.75,1
317.75,-15.5,300.25,-13.5,-26.75,19.0,-74.75,61.25,1
361.0,-44.25,528.5,-24.75,-32.0,15.0,-45.0,70.0,1
425.5,-44.5,394.0,-20.75,-24.75,24.75,-17.0,66.5,1
204.0,-57.0,12.75,-42.5,-11.25,24.25,7.75,74.75,1
113.75,-52.5,-222.0,-42.5,-0.25,30.25,34.25,48.5,1
77.5,-60.0,-133.75,-35.25,1.0,30.25,61.5,-39.5,1
-34.75,-48.0,135.75,-38.25,5.0,35.25,77.75,-116.5,1
14.25,-23.5,310.5,-33.75,18.0,56.75,76.5,-87.75,1
-140.25,-14.75,94.0,-35.25,24.5,49.0,56.5,2.75,1
-376.5,0.0,-317.5,-42.5,29.25,36.75,32.0,18.5,1
-554.5,-11.5,-394.5,-53.25,42.75,6.75,6.75,59.25,1
-628.0,-5.75,-431.75,-54.25,58.0,-19.5,-6.5,103.75,1
-520.25,23.25,-299.5,-50.5,77.25,1.0,-5.5,156.75,1
-442.25,43.5,-52.25,-37.0,91.0,3.25,-1.25,230.0,1
-454.5,13.5,28.5,-40.75,99.5,-15.0,19.5,173.0,1
-422.25,-1.0,76.5,-32.5,122.25,14.5,32.75,126.75,1
-482.25,3.25,218.0,-38.5,148.25,30.75,57.0,92.5,1
-517.75,-17.75,284.5,-71.5,166.25,46.0,94.25,56.75,1
-419.0,-4.5,221.25,-99.25,195.0,42.75,110.0,-52.25,1
-452.25,8.0,217.75,-113.25,200.0,14.25,122.0,-62.5,1
-259.25,3.75,-53.25,-97.5,210.75,7.75,143.25,92.5,1
24.0,-12.5,-376.5,-72.75,224.5,23.25,157.25,19.5,1
223.5,-25.75,-358.0,-77.25,228.5,22.25,168.5,-101.0,1
319.0,3.25,-158.5,-77.25,247.0,16.5,189.5,23.25,1
306.0,-1.0,80.5,-57.0,241.75,3.5,205.5,225.5,1
291.75,-10.25,118.75,-49.75,250.5,-3.25,234.75,231.5,1
198.75,3.25,67.0,-47.5,241.5,15.75,237.75,226.25,1
294.75,-42.75,63.25,-41.25,248.5,24.5,237.5,235.25,1
292.25,-80.75,-34.5,-43.0,241.25,29.75,259.25,148.5,1
75.75,-96.75,-156.5,-56.25,199.25,42.5,257.5,100.0,1
-39.75,-77.5,-108.5,-56.75,188.75,51.75,237.75,34.75,1
-178.75,-21.5,22.5,-45.5,158.75,18.25,227.0,-38.25,1
-408.5,-35.5,111.0,-34.25,131.25,17.25,213.25,-103.75,1
-478.5,-67.0,270.5,-34.0,103.25,13.75,196.5,-84.75,1
-379.75,-55.5,488.0,-46.75,78.5,7.75,183.75,19.25,1
-357.0,-19.5,432.75,-40.25,62.75,16.5,172.75,70.0,1
-179.25,7.5,94.25,-43.75,53.5,12.0,175.5,63.75,1
98.5,10.0,-7.0,-34.0,39.0,27.5,157.75,78.75,1
260.25,23.75,21.5,-3.25,27.0,10.5,151.5,73.5,1
201.0,22.5,-69.75,-7.25,31.0,17.0,129.75,62.0,1
35.0,2.5,-138.25,-6.0,23.25,37.0,116.25,62.5,1
27.5,10.5,-87.0,8.25,12.25,28.75,119.75,69.75,1
-51.5,11.5,-114.0,21.75,18.0,22.75,102.75,98.0,1
-75.75,-1.75,-364.75,25.75,19.75,18.25,104.0,101.0,1
43.0,-7.0,-499.25,11.5,22.25,33.5,80.0,83.25,1
199.75,-10.25,-479.0,4.5,35.0,29.5,37.75,63.5,1
294.5,5.5,-366.0,-16.5,23.5,21.25,-1.0,10.25,1
339.75,35.5,-192.0,-6.75,28.5,23.75,-25.5,-55.25,1
344.5,60.25,-64.0,11.0,24.25,24.5,-66.0,-27.0,1
273.75,55.25,128.25,5.5,22.75,24.25,-94.5,17.5,1
229.5,40.5,224.5,10.25,26.25,6.75,-115.25,-35.75,1
143.25,35.25,231.25,3.5,9.75,7.0,-146.0,-22.25,1
28.25,24.5,245.0,4.5,19.75,21.0,-136.25,12.5,1
-14.25,3.0,223.0,7.0,20.75,22.0,-144.5,-2.5,1
-24.0,-4.0,131.5,12.5,29.25,19.0,-128.5,-5.75,1
-40.75,7.25,52.75,11.5,32.75,14.75,-128.0,-41.25,1
-47.75,8.0,-17.5,2.0,35.25,18.25,-127.0,-49.0,1
-56.75,-11.25,-51.75,5.25,42.5,22.25,-121.25,-57.25,1
18.75,-10.5,21.5,-25.0,46.5,13.5,-130.25,-35.75,1
71.75,-11.0,53.0,-43.5,56.5,18.75,-136.0,-8.5,1
65.75,-25.5,-33.75,-46.0,53.5,21.0,-156.0,12.25,1
133.25,-22.5,-94.0,-60.25,43.0,18.5,-169.5,51.75,1
145.75,-27.5,-170.5,-44.5,16.75,22.5,-192.5,22.25,1
127.25,-43.0,-260.5,-43.25,7.5,29.0,-206.0,-20.0,1
61.75,-36.5,-187.0,-70.5,7.5,27.0,-232.5,-7.0,1
-18.5,-55.75,-57.75,-89.75,7.25,11.75,-250.0,1.75,1
-23.5,-41.5,234.5,-70.75,9.75,8.75,-264.0,-47.0,1
-77.75,-40.0,729.5,-40.0,12.5,26.0,-266.0,-65.75,1
-220.75,-45.75,1105.0,-18.0,31.0,37.0,-277.0,-111.5,1
-368.25,8.75,1054.5,-10.0,40.5,29.5,-284.0,-255.0,1
-411.5,15.5,859.25,-37.75,43.0,31.75,-266.0,-216.25,1
-398.75,25.0,830.0,-55.0,36.0,28.25,-244.0,-137.5,1
-300.5,2.75,246.0,-41.75,48.25,23.0,-203.5,-227.0,1
-252.75,-50.5,-860.5,-30.5,51.25,33.25,-202.25,-211.0,1
-172.75,-79.0,-1555.25,-20.25,49.5,32.0,-186.0,-194.5,1
-5.75,-93.0,-1558.5,-19.25,42.0,32.25,-152.75,-160.25,1
147.5,-55.75,-1140.0,7.75,26.0,64.5,-133.25,-86.25,1
383.75,-2.25,-860.0,59.25,33.25,55.5,-119.25,-3.25,1
539.0,79.25,-630.25,94.0,13.25,50.75,-108.75,45.75,1
598.75,128.25,-208.75,105.5,-21.25,40.0,-93.75,26.5,1
583.25,118.75,4.5,83.0,-25.25,0.25,-66.75,43.75,1
464.0,124.75,-33.0,75.5,-7.0,27.5,-42.0,7.0,1
393.5,113.5,-72.5,102.0,-11.0,50.75,-47.5,55.5,1
368.5,122.25,86.25,125.25,-9.5,51.0,-7.75,91.0,1
301.0,116.0,362.75,105.75,-29.0,49.25,21.5,74.0,1
180.5,89.25,501.0,71.25,-38.25,37.5,31.5,94.25,1
22.5,75.25,282.75,52.25,-29.0,43.0,48.75,76.75,1
-177.75,43.25,22.75,41.25,-41.0,50.25,76.5,92.75,1
-398.75,38.0,-66.5,17.75,-29.75,49.5,83.25,84.5,1
-569.75,15.25,-92.75,-11.0,-44.25,54.75,95.0,85.5,1
-546.75,-2.75,-72.75,-23.0,-56.25,45.75,114.0,58.5,1
-467.0,6.25,-20.25,-32.25,-55.0,43.75,127.0,76.5,1
-386.75,0.75,34.75,-32.25,-62.75,41.5,149.75,86.25,1
-244.0,4.25,115.75,-46.25,-53.0,35.5,155.75,73.0,1
-66.75,3.75,245.5,-68.0,-39.75,37.75,174.0,112.25,1
86.0,-15.0,298.25,-68.25,-20.0,26.75,187.75,116.25,1
167.5,-36.75,297.5,-56.75,-16.75,33.75,196.0,137.75,1
212.75,-42.25,319.5,-55.25,-12.5,40.25,198.75,116.75,1
167.75,-46.5,376.0,-43.75,3.75,22.75,195.25,110.25,1
115.25,-59.5,395.5,-33.25,1.0,15.0,202.25,118.0,1
74.25,-65.5,485.25,-59.75,-2.25,15.75,196.5,67.75,1
15.0,-50.5,289.5,-80.25,5.25,13.75,178.5,57.25,1
-34.75,-11.75,-179.25,-54.5,-3.0,7.75,157.5,61.75,1
-82.75,15.25,-460.0,-48.75,-8.0,6.75,148.75,12.0,1
-125.5,15.5,-645.25,-67.75,-2.5,14.25,140.0,-27.5,1
-153.75,10.0,-627.0,-89.5,10.75,10.25,125.25,-9.75,1
-147.25,2.75,-514.0,-109.25,10.5,13.0,117.0,16.0,1
-123.75,-1.75,-404.5,-88.5,18.5,13.5,105.75,15.0,1
-78.25,4.25,-264.5,-44.75,36.0,7.75,102.5,36.5,1
-74.5,3.0,-184.0,-17.5,36.0,12.5,100.25,26.0,1
-91.5,2.75,-9.5,-6.75,26.0,10.0,79.75,4.5,1
-87.75,4.25,211.0,22.0,29.0,-0.25,52.75,8.75,1
-73.25,-11.0,330.0,39.0,33.0,4.25,35.0,1.0,1
-37.25,-18.5,92.25,18.0,20.5,-0.75,17.5,-19.5,1
-32.25,-10.75,-321.0,1.0,16.25,0.0,6.75,-47.25,1
-29.5,0.75,-410.75,-1.75,20.25,2.25,-2.5,-22.75,1
-26.25,-11.5,-195.5,-20.0,23.5,7.25,-1.5,-21.25,1
-29.75,-35.25,28.75,-36.0,1.75,12.5,-8.0,-27.0,1
-1.0,-29.0,114.75,-40.25,-4.5,21.25,-9.25,27.5,1
-4.5,-18.75,180.0,-53.25,-10.75,15.75,9.5,47.0,1
-10.25,-23.75,217.75,-59.5,-19.5,-24.25,13.0,89.75,1
14.75,-11.0,211.5,-51.5,-4.75,-23.5,24.75,87.25,1
2.5,-23.0,234.25,-35.75,0.75,-9.0,20.75,45.5,1
-57.5,-39.5,204.75,-33.75,1.75,-5.0,35.0,11.25,1
-86.75,-17.0,168.5,-46.75,8.0,-2.5,39.0,-78.5,1
-68.25,-8.25,209.75,-58.75,7.0,9.0,26.75,-103.25,1
-48.25,13.5,251.0,-38.25,-1.0,18.25,29.0,-88.0,1
-16.5,13.5,101.5,-40.5,1.75,19.75,36.75,-31.75,1
19.75,20.0,-114.5,-52.25,-2.25,48.0,34.5,-44.5,1
64.75,25.5,-91.25,-31.75,-6.25,55.25,48.0,-57.5,1
115.75,27.75,13.0,-30.25,-1.25,27.25,63.25,-33.75,1
162.5,21.5,-16.25,-13.0,-0.25,18.5,51.25,-48.5,1
154.75,24.5,-29.0,40.0,20.75,33.5,62.0,8.0,1
115.5,25.5,228.0,49.0,31.75,13.5,58.0,-62.5,1
66.5,-14.5,653.75,7.75,26.5,-26.75,59.75,-83.0,1
-22.0,-32.25,771.25,-29.75,31.0,-33.75,59.75,-18.75,1
-58.75,-16.0,632.5,-32.75,19.75,-14.75,42.75,-2.75,1
-38.25,2.75,-57.0,-16.75,5.75,10.5,56.0,26.25,1
-66.5,-8.0,-527.5,-28.75,13.5,17.25,69.25,26.5,1
-91.0,-18.75,-917.25,-33.0,19.0,22.75,68.5,23.75,1
-57.75,-9.25,-1019.0,-45.25,9.0,35.5,68.25,10.0,1
-70.0,0.5,-949.25,-47.0,12.0,34.25,66.75,-42.25,1
-105.0,1.5,-658.0,-20.0,6.25,23.75,61.75,-190.5,1
-155.75,-2.25,-24.25,-21.25,2.5,21.0,67.5,-205.75,1
-182.25,5.5,63.5,16.25,-10.5,12.5,71.5,-69.75,1
-168.25,23.0,-179.75,36.75,-8.75,25.0,65.25,-53.25,1
-116.5,23.5,-283.0,29.0,-3.0,26.75,62.75,-43.25,1
-88.5,5.0,-99.0,26.5,6.25,25.0,53.75,-29.0,1
-117.0,-1.5,161.0,5.75,12.75,39.75,44.75,-27.0,1
-122.0,-14.5,195.25,10.75,1.5,23.75,43.25,2.5,1
-102.75,-24.25,240.25,-16.0,-4.0,13.75,36.25,-22.0,1
-62.0,-11.0,124.75,-52.0,-7.75,23.0,21.5,-66.25,1
-31.5,-16.25,94.5,-20.0,2.0,12.5,28.25,-90.5,1
-2.75,-36.75,2.5,0.75,6.75,16.0,44.5,-64.5,1
17.75,-38.0,37.5,15.75,5.0,33.25,36.75,-4.75,1
38.75,-24.75,237.25,15.5,7.0,22.5,35.0,-15.0,1
53.0,-14.5,243.25,-9.0,8.0,33.25,20.5,16.0,1
56.75,-7.25,180.5,-3.5,-0.5,35.25,17.0,97.25,1
55.5,13.25,-4.25,11.75,-12.5,34.75,25.5,91.25,1
50.75,34.75,-154.25,5.75,1.25,45.0,31.0,91.25,1
34.25,20.75,-227.0,-11.0,5.5,31.25,33.0,14.0,1
19.75,8.5,-218.5,-9.75,4.75,43.25,17.75,-77.25,1
7.25,8.75,-109.75,-7.25,9.5,45.5,10.5,11.5,1
-5.5,8.5,-72.5,-4.0,6.25,50.0,-3.25,11.75,1
4.75,-6.25,24.75,-8.25,13.5,55.75,-8.5,37.25,1
22.5,-4.75,242.5,-4.75,18.25,47.5,5.0,88.0,1
45.75,12.25,208.0,2.25,25.25,34.25,13.0,88.5,1
63.75,30.75,20.0,1.25,42.75,8.25,13.75,135.5,1
96.5,56.25,-118.25,0.0,50.25,8.0,16.75,120.75,1
118.25,57.75,-106.25,1.75,56.5,7.75,11.0,160.75,1
146.0,64.25,19.5,10.25,70.75,17.5,-3.25,208.25,1
165.25,57.75,71.75,8.25,72.0,50.25,-2.0,206.0,1
168.0,39.0,120.75,20.75,87.5,73.25,0.75,220.75,1
182.75,43.25,161.0,40.75,73.25,75.0,-5.5,224.5,1
156.75,48.75,263.5,31.75,41.0,59.25,-11.0,182.25,1
146.75,35.0,271.5,17.25,28.75,47.75,-24.0,133.5,1
147.5,34.0,10.75,15.5,-3.25,31.0,-34.75,158.25,1
158.5,30.25,-92.5,20.75,-38.0,31.25,-35.5,201.0,1
167.0,25.5,-82.25,30.5,-68.25,22.25,-37.5,172.0,1
169.0,25.0,-228.25,44.75,-88.5,18.75,-44.0,101.0,1
151.5,30.75,-244.5,50.25,-111.0,25.0,-56.5,-3.25,1
147.0,56.5,-263.75,51.0,-137.0,11.0,-73.5,-40.5,1
156.75,76.0,-404.75,47.75,-166.0,6.25,-86.5,-15.75,1
139.25,90.25,-294.25,52.5,-173.75,-5.25,-102.25,-58.75,1
115.5,94.75,-26.25,48.25,-160.75,-7.0,-119.25,-107.25,1
71.25,77.0,69.75,34.5,-150.0,11.25,-107.0,-134.0,1
32.25,68.5,-78.25,39.0,-133.75,22.0,-104.75,-53.25,1
-30.25,50.5,-66.75,52.0,-118.5,15.25,-100.25,-18.5,1
-111.25,16.0,33.75,55.5,-74.25,24.0,-93.25,-94.0,1
-155.0,1.25,-17.25,42.75,-34.0,26.0,-77.0,-172.75,1
-142.0,-28.25,-75.25,47.25,-15.75,33.5,-50.25,-142.25,1
-146.25,-53.75,-149.0,37.75,14.5,49.5,-43.5,12.5,1
-152.0,-55.25,-136.5,47.75,65.75,53.5,-46.75,16.5,1
-150.75,-72.5,-179.75,60.25,116.75,61.75,-56.5,20.5,1
-199.0,-101.25,-202.5,64.0,182.5,77.0,-47.5,12.0,1
-292.25,-128.5,-150.0,102.5,261.0,90.5,-36.5,-50.0,1
-445.25,-157.25,-103.0,110.75,336.5,91.5,-21.0,-23.75,1
-535.0,-173.5,48.5,125.25,386.0,81.75,-3.5,-10.25,1
-612.25,-182.5,296.75,130.25,434.75,68.5,4.75,11.0,1
-650.0,-183.0,570.5,128.25,486.25,50.0,9.5,12.5,1
-607.0,-197.0,604.75,170.5,541.0,92.25,-2.5,-8.5,1
-575.75,-247.25,490.0,221.5,608.25,121.25,-15.75,-8.5,1
-539.0,-244.75,317.25,234.0,585.5,90.5,-54.75,9.0,1
-512.5,-226.0,240.0,235.0,556.5,105.25,-96.75,9.0,1
-476.5,-197.5,296.75,213.75,452.75,77.75,-132.5,36.25,1
-387.5,-135.25,171.5,150.5,332.75,57.25,-159.25,97.5,1
-289.0,-104.0,-59.75,83.5,261.0,36.5,-167.5,115.25,1
-169.0,-76.0,-171.5,29.25,182.25,9.75,-185.0,115.75,1
-124.0,-45.5,-71.75,-8.5,132.25,6.75,-201.75,156.25,1
-51.0,0.0,-1.0,-79.5,6.75,-24.5,-244.0,192.5,1
112.25,47.25,-19.25,-164.0,-65.5,-31.25,-267.25,108.0,1
177.25,57.75,6.25,-171.25,-62.0,-37.0,-204.0,65.75,1
191.75,61.0,45.5,-183.0,-75.0,-35.25,-85.25,124.75,1
260.0,72.25,82.5,-194.5,-79.25,-30.75,78.5,175.75,1
317.25,79.25,105.0,-159.75,-82.25,-43.0,229.5,215.75,1
384.0,64.75,130.25,-209.0,-119.0,-50.5,319.25,259.25,1
352.25,74.75,63.5,-259.0,-144.25,-45.0,293.25,279.75,1
316.0,109.75,-2.25,-312.75,-172.75,-42.75,107.25,250.0,1
288.25,114.5,-31.5,-349.5,-182.25,-29.75,-206.75,182.0,1
278.75,114.0,-26.0,-334.75,-160.0,-12.75,-586.0,103.5,1
347.5,97.5,38.25,-300.25,-103.0,-13.0,-869.0,93.75,1
256.5,62.5,-8.75,-229.25,-38.0,-4.5,-990.0,56.75,1
85.0,41.25,-204.5,-166.0,-10.75,1.75,-996.25,-35.75,1
-225.5,35.25,-394.75,-118.5,-11.5,-1.0,-982.0,-66.0,1
-350.5,41.75,-326.0,-94.0,-44.0,-30.75,-985.25,-14.25,1
-87.75,61.5,-163.25,-84.5,-95.75,-43.0,-615.5,27.75,1
263.5,72.75,-135.75,-92.25,-126.25,-25.75,-54.5,-8.75,1
442.25,56.75,31.25,-84.5,-127.25,-20.0,597.25,21.5,1
156.5,50.5,190.75,-58.25,-138.75,-18.0,1001.25,15.0,1
-196.25,67.5,264.75,-46.0,-162.25,-15.5,1005.25,-41.75,1
-174.25,89.5,311.25,-61.0,-201.5,-27.25,1011.75,-8.5,1
-40.75,98.25,278.5,-81.5,-213.75,-13.75,1004.75,-1.75,1
201.5,91.0,328.0,-109.25,-210.5,1.0,1012.0,-39.0,1
495.0,74.25,189.75,-169.25,-267.0,-18.0,1001.0,-32.5,1
485.5,63.75,-62.0,-211.5,-290.0,-15.5,1000.5,10.5,1
282.5,92.0,-241.0,-235.0,-278.0,-7.25,1010.75,31.0,1
51.5,110.25,-407.5,-279.5,-265.25,3.5,1009.75,35.25,1
-88.75,122.25,-455.75,-263.75,-208.75,3.5,890.25,44.5,1
-72.0,149.25,-473.75,-261.5,-213.5,-4.25,623.75,75.25,1
93.75,175.25,-460.5,-320.75,-255.75,-11.25,337.75,117.5,1
406.5,177.5,-417.75,-323.75,-189.75,-15.5,99.25,100.5,1
478.75,164.25,-292.75,-330.75,-158.0,-19.25,-83.25,87.0,1
479.25,177.5,-153.0,-335.0,-143.5,-27.25,-176.75,81.25,1
380.0,135.0,-115.0,-332.5,-132.75,-20.0,-208.25,69.75,1
248.0,129.5,-40.0,-406.5,-185.75,-37.0,-191.0,66.75,1
258.0,151.25,-12.25,-435.0,-175.25,-41.0,-160.5,41.25,1
358.25,172.75,-44.0,-408.0,-179.0,-38.5,-163.5,76.0,1
608.0,211.5,-43.75,-389.0,-140.75,-36.75,-162.25,125.75,1
597.25,187.0,-20.25,-352.75,-115.0,-33.5,-153.5,169.25,1
421.5,205.75,-37.0,-353.0,-239.25,-74.5,-137.25,233.25,1
444.0,239.25,-63.0,-333.25,-299.0,-86.0,-150.25,258.0,1
329.0,244.25,44.0,-310.0,-259.0,-83.75,-165.25,242.25,1
314.5,212.25,330.25,-283.75,-163.75,-67.75,-132.25,178.75,1
245.25,119.0,495.75,-237.25,57.75,-13.75,-42.5,144.5,1
36.25,26.75,191.75,-209.25,273.75,49.25,91.5,178.75,1
-188.0,-70.75,-43.5,-184.5,462.0,110.0,249.0,244.75,1
-360.5,-152.25,55.0,-128.0,599.25,102.5,421.25,259.0,1
-471.5,-237.75,26.75,-63.25,668.5,99.0,610.5,236.0,1
-614.75,-273.25,39.0,24.5,686.0,113.75,812.0,174.75,1
-800.25,-280.0,105.75,86.5,619.25,97.5,989.75,46.75,1
-938.25,-288.25,129.0,135.5,521.5,87.5,1051.75,23.25,1
-808.5,-274.75,63.5,215.25,368.25,72.0,1068.0,-50.0,1
-800.5,-245.25,-105.75,317.25,218.0,56.25,1081.0,-115.25,1
-884.75,-192.5,-71.5,375.75,78.25,18.75,973.75,-161.25,1
-785.0,-144.25,96.0,421.25,-62.0,4.75,807.0,-286.75,1
-680.75,-77.0,227.75,472.0,-171.0,-27.25,596.75,-435.25,1
-617.25,-69.25,183.0,465.75,-196.25,-63.5,395.5,-517.5,1
-504.0,-60.5,68.0,448.75,-173.25,-30.0,220.0,-471.0,1
-289.0,-59.0,132.75,445.75,-139.75,-24.0,64.0,-531.75,1
-134.75,-49.5,189.5,440.25,-59.0,-6.75,-81.25,-536.0,1
-68.5,-4.25,267.5,434.0,-5.75,29.5,-206.0,-411.5,1
-61.75,-12.75,298.5,425.25,28.5,63.0,-300.0,-385.5,1
94.0,-40.25,179.75,410.0,69.0,75.5,-422.0,-378.0,1
277.25,-72.75,97.0,361.0,110.5,63.75,-504.0,-248.5,1
267.25,-75.75,-7.0,314.25,121.75,53.25,-547.5,-267.75,1
277.5,-57.25,-26.25,292.25,141.5,67.5,-584.25,-293.5,1
302.75,-69.5,35.75,274.25,147.5,88.0,-604.5,-206.5,1
283.0,-102.25,210.5,264.0,144.0,81.5,-609.25,-201.75,1
280.75,-114.25,393.75,266.0,143.5,97.0,-636.0,-182.75,1
153.75,-114.0,136.0,250.0,139.5,99.5,-663.5,-171.5,1
47.75,-124.75,-47.5,214.75,144.25,84.5,-681.75,-177.0,1
60.5,-115.25,-180.0,160.75,129.0,102.0,-714.75,-195.5,1
125.0,-95.75,-484.0,130.0,132.5,91.5,-747.5,-313.25,1
323.0,-95.25,-210.5,111.25,127.75,82.0,-763.5,-253.75,1
792.75,-119.75,224.0,90.5,111.75,80.5,-758.5,-3.0,1
1071.75,-101.25,549.25,79.5,98.75,76.0,-758.75,49.0,1
1072.75,-59.25,493.25,65.25,95.5,69.75,-734.5,16.5,1
689.0,-64.0,-483.25,49.75,91.25,61.75,-681.75,44.5,1
-64.25,-59.25,-1107.0,35.0,77.5,66.0,-647.5,-23.75,1
-585.25,-31.75,-1061.25,24.75,84.5,48.25,-598.0,-110.75,1
-759.5,-25.75,-1047.25,14.75,60.25,58.5,-558.75,-104.5,1
-787.75,-27.5,-788.25,3.75,74.25,56.0,-508.0,24.25,1
-527.0,-23.25,-579.75,-16.25,64.25,46.75,-437.75,25.25,1
-372.0,-16.5,-356.0,-1.75,50.25,44.5,-381.0,20.0,1
-314.0,0.75,-269.0,31.0,58.25,33.75,-309.75,114.0,1
-331.75,-1.75,-65.25,21.75,21.75,45.5,-261.75,85.0,1
-274.5,-2.25,120.0,-2.0,34.0,45.5,-223.0,111.25,1
-383.25,11.5,195.0,-19.5,31.0,48.5,-163.75,130.5,1
-369.0,20.0,61.25,-51.0,25.0,45.5,-133.5,153.25,1
-177.25,10.75,-45.75,-61.75,35.75,55.5,-125.75,168.0,1
-95.25,10.75,-68.25,-62.25,25.25,72.5,-90.25,144.5,1
182.75,17.0,-9.75,-52.75,23.5,62.75,-72.0,139.25,1
374.5,10.0,89.5,-60.25,15.75,54.0,-57.25,137.25,1
398.5,17.75,-2.25,-86.75,36.0,52.25,-36.25,120.25,1
325.75,-2.25,-58.5,-91.0,54.5,48.75,-20.0,82.75,1
146.25,-17.0,-81.0,-108.25,65.0,49.25,11.75,150.25,1
26.0,-8.5,-32.25,-107.0,85.75,46.25,32.25,188.0,1
95.75,-15.5,-64.25,-121.0,99.25,47.25,53.25,197.5,1
172.25,-21.25,-27.5,-136.0,122.0,45.0,77.75,181.5,1
291.25,-44.0,224.0,-133.25,140.5,44.75,78.5,141.25,1
308.75,-38.0,466.5,-115.5,161.25,42.75,87.75,138.25,1
130.75,-11.5,601.5,-97.0,183.25,40.0,93.25,163.0,1
238.25,21.5,594.25,-112.75,182.25,51.5,81.0,164.0,1
252.5,45.5,617.75,-119.0,189.5,48.75,70.0,117.75,1
-39.25,48.25,406.0,-123.75,178.0,46.75,63.25,161.25,1
-202.25,62.75,69.0,-123.25,152.0,48.0,43.75,150.25,1
-214.0,42.0,-215.25,-109.75,139.5,41.0,15.0,93.25,1
-207.0,25.0,-399.75,-111.0,132.5,35.25,-5.0,30.75,1
-161.0,38.75,-448.25,-103.5,121.0,44.0,-7.5,8.25,1
-226.25,44.5,-467.0,-84.75,79.5,28.75,-17.5,69.25,1
-255.25,62.0,-331.0,-55.5,53.0,14.25,-17.25,58.25,1
-295.0,74.0,-167.75,-45.75,36.5,12.75,-13.25,51.25,1
-271.75,74.0,0.25,-43.0,-4.0,3.75,-29.25,48.25,1
-143.0,81.25,3.5,-23.75,-34.0,-8.75,-22.75,49.5,1
-49.75,59.25,-80.75,-17.5,-66.25,-10.0,-16.0,55.5,1
78.0,63.75,-30.5,-21.0,-80.5,-22.25,-20.25,58.25,1
223.5,86.0,91.0,-21.0,-102.75,-26.75,-15.25,62.25,1
291.75,54.25,196.75,-14.0,-114.0,-12.25,-16.25,44.25,1
260.5,17.5,185.0,-15.5,-119.75,-16.0,-14.5,49.25,1
258.0,27.0,152.0,-22.0,-140.5,-26.25,-8.5,58.5,1
208.75,39.75,105.0,-32.0,-138.75,-23.75,-13.25,46.75,1
247.5,35.0,102.75,-38.75,-142.5,-18.25,-7.25,27.25,1
306.25,21.75,85.25,-45.75,-143.25,-16.0,-7.25,-8.0,1
209.75,7.5,4.25,-23.5,-145.5,-23.5,-13.25,-89.5,1
79.25,7.25,-32.5,-26.5,-149.25,-17.75,-10.75,-108.0,1
-77.5,-2.5,-57.5,-50.5,-161.5,-7.25,-9.75,-60.75,1
-206.75,-1.0,43.5,-47.0,-169.75,-8.25,-4.0,-49.25,1
-208.75,-0.75,143.5,-52.25,-166.25,6.75,-1.75,-48.75,1
-177.75,12.5,170.5,-32.25,-172.0,-9.0,-3.75,8.5,1
-168.25,27.75,183.75,-22.0,-165.0,-16.25,-12.75,41.25,1
-68.5,8.5,166.0,-19.25,-162.25,-3.0,-14.75,26.5,1
-30.75,7.25,140.5,-17.0,-149.25,1.5,-2.25,44.75,1
-89.0,26.5,106.5,-3.5,-140.75,7.25,12.0,9.25,1
-176.75,15.0,179.25,-12.0,-142.5,4.5,24.25,-59.0,1
-284.5,5.5,427.5,-39.0,-114.0,5.0,41.75,-83.75,1
-295.0,5.75,431.75,-38.5,-84.25,1.25,63.5,-36.0,1
-237.0,8.5,77.25,-22.5,-73.0,9.25,83.5,27.5,1
-148.25,33.25,-195.5,1.25,-61.5,18.25,103.25,51.25,1
-91.75,22.0,-289.0,5.0,-53.75,17.0,124.5,78.75,1
-137.75,9.25,-188.25,3.5,-46.75,18.25,133.25,-24.5,1
-168.25,-10.75,-160.5,4.5,-41.0,22.75,145.25,-142.25,1
-132.5,-18.75,-105.5,-3.75,-55.5,7.5,164.0,-102.5,1
-85.5,9.5,61.5,-9.25,-65.0,9.0,159.75,-89.0,1
19.5,9.5,30.0,-14.25,-61.25,7.0,149.25,-141.0,1
149.0,5.25,84.0,-12.5,-60.0,-4.25,137.5,-132.5,1
109.0,-10.0,237.0,-27.25,-44.0,20.5,117.0,-88.75,1
27.75,-18.25,581.25,-29.5,-31.0,23.25,100.75,-89.75,1
71.25,-4.0,615.0,-17.75,-35.75,26.75,75.0,-67.25,1
65.25,-0.25,9.25,-16.75,-48.25,25.75,73.25,-3.0,1
84.75,6.75,-452.75,-26.0,-63.0,20.75,95.75,42.0,1
121.5,3.75,-633.75,-35.25,-77.0,15.25,119.25,86.0,1
133.75,-3.0,-666.0,-25.75,-84.5,-6.0,154.5,122.5,1
225.75,3.5,-699.0,-20.75,-87.0,-8.5,185.5,86.0,1
268.0,1.5,-747.5,-24.0,-65.5,-10.0,211.75,41.75,1
310.75,19.5,-472.25,7.25,-29.0,9.25,225.5,-30.25,1
309.5,31.0,-119.0,39.0,-14.25,22.5,250.75,-114.0,1
167.5,21.0,-22.25,31.5,13.75,13.5,261.25,-56.0,1
41.25,24.5,47.0,2.75,41.75,8.25,272.0,-6.5,1
-104.5,21.25,180.0,-2.5,46.0,-17.75,282.0,26.25,1
-215.0,8.25,170.25,1.0,68.75,-14.25,280.25,47.75,1
-330.75,4.0,194.75,6.25,67.75,-6.0,302.5,11.0,1
-433.0,3.25,308.5,7.25,65.75,8.25,294.5,6.75,1
-505.75,-5.25,280.0,8.5,74.5,10.0,282.25,2.75,1
-567.25,-8.25,228.5,-7.5,56.5,-1.0,270.25,34.75,1
-465.75,1.25,158.5,-22.5,43.75,-1.25,276.5,71.25,1
-401.25,29.0,66.75,-22.0,27.5,-6.0,288.0,94.0,1
-386.5,20.5,208.25,-28.25,12.0,-0.75,284.25,81.5,1
-282.25,-0.75,512.25,-27.25,2.0,0.75,299.5,72.75,1
-104.75,2.5,622.75,-48.5,-1.75,3.25,291.0,53.5,1
42.25,-28.25,380.25,-56.75,-3.25,4.0,263.5,2.0,1
82.0,-30.75,-14.75,-27.5,-11.25,15.0,249.75,-25.0,1
152.0,-33.75,-354.0,5.5,0.75,21.5,228.75,-8.75,1
242.75,-42.0,-521.25,13.25,-1.25,14.0,178.25,41.5,1
296.5,-2.0,-504.5,6.0,0.0,16.0,153.25,74.5,1
251.25,11.75,-359.25,0.5,-12.0,12.75,131.25,100.0,1
124.25,10.5,-116.25,2.75,1.25,19.5,98.75,134.5,1
-7.0,6.75,-17.5,-14.75,-2.0,16.5,82.5,124.25,1
-84.75,2.0,21.0,-22.5,-18.5,6.0,27.75,65.5,1
-110.75,20.75,75.5,-18.5,-9.75,4.0,0.5,27.25,1
-156.75,3.0,-9.75,-53.75,-6.5,3.0,-25.75,-5.5,1
-100.75,-26.75,-106.75,-90.0,9.0,12.75,-47.0,-48.75,1
-63.75,-26.75,-282.5,-102.75,11.0,10.25,-63.5,-52.75,1
-70.25,-5.0,-269.25,-75.75,19.75,10.25,-112.5,23.25,1
-4.0,-4.5,-179.25,-58.75,32.75,13.5,-149.25,63.75,1
17.75,-10.25,-138.75,-38.75,27.75,16.25,-179.5,113.75,1
97.75,-9.5,17.25,-18.5,47.25,16.0,-205.25,187.0,1
152.25,-1.25,68.5,-4.0,80.75,20.5,-238.5,111.25,1
239.75,-4.5,192.0,10.25,94.5,24.25,-269.25,65.75,1
348.5,-3.5,299.25,-7.0,107.75,27.75,-285.25,6.0,1
282.75,-7.25,294.5,-35.5,123.5,36.75,-276.75,-94.75,1
201.25,-26.25,448.25,-41.5,129.5,43.75,-264.75,-97.75,1
175.75,-13.25,754.5,-20.0,148.0,45.0,-249.75,-120.0,1
51.25,-19.0,723.5,-12.25,153.0,45.5,-231.0,-176.0,1
-198.75,-18.5,383.25,-3.0,165.0,49.0,-218.0,-52.5,1
-281.0,-7.5,-14.0,2.5,165.0,53.25,-208.0,65.25,1
-223.25,6.5,-249.25,-8.0,144.75,54.25,-196.0,-38.5,1
-110.25,15.5,-302.5,-27.5,136.25,42.5,-175.0,-84.0,1
13.75,-8.25,-403.0,-46.0,117.25,34.75,-159.5,-163.25,1
90.75,-46.5,-358.25,-62.0,107.5,36.25,-133.25,-240.0,1
171.75,-109.75,-199.75,-63.75,102.25,35.75,-113.25,-248.5,1
269.5,-138.25,-195.25,-50.75,109.5,26.25,-76.25,-100.25,1
398.5,-86.75,-527.5,-40.75,133.0,29.5,-58.25,18.5,1
471.25,29.5,-676.25,-37.25,126.25,31.75,-50.75,-24.75,1
391.25,134.0,-539.0,-33.25,121.5,39.75,-48.0,26.25,1
217.5,193.25,-91.75,-7.0,138.25,53.5,-65.5,4.75,1
-5.25,181.0,331.5,-2.0,134.0,45.5,-93.0,24.75,1
-223.75,121.5,207.75,3.75,128.75,45.25,-119.5,23.5,1
-294.5,77.25,139.0,4.5,128.75,43.5,-131.25,27.5,1
-270.25,49.25,62.5,3.0,131.25,33.75,-150.0,54.5,1
-262.25,22.5,-58.0,7.75,141.5,26.25,-154.0,41.75,1
-241.75,2.0,13.75,8.5,143.25,34.5,-152.75,55.25,1
-195.5,-4.75,-91.5,-17.25,147.75,46.25,-157.5,45.75,1
-79.75,-21.75,-338.75,-38.75,150.0,52.75,-153.0,88.25,1
57.25,-20.0,-505.25,-7.5,152.75,62.5,-167.0,106.0,1
95.75,-15.0,-665.25,-11.25,154.75,53.5,-171.75,128.75,1
66.5,-29.25,-360.0,-20.25,144.25,55.5,-165.25,116.25,1
20.5,-38.25,191.0,-18.25,136.0,36.75,-159.25,104.75,1
-72.75,-27.25,299.25,-28.0,128.75,20.75,-123.5,97.5,1
-137.0,-20.25,107.75,-28.25,131.25,45.25,-87.5,60.25,1
-200.75,11.5,-41.0,-21.0,126.25,32.75,-67.0,54.25,1
-349.25,26.75,40.5,-12.75,112.0,31.0,-51.75,96.5,1
-521.25,13.5,45.75,-14.5,118.25,27.5,-26.75,160.25,1
-599.25,8.75,175.0,-21.5,117.5,25.25,-17.75,156.25,1
-533.0,-16.0,414.5,-2.75,104.5,27.25,-7.25,158.5,1
-423.0,-25.5,406.25,-19.75,84.25,28.75,13.0,163.75,1
-229.25,-20.25,281.0,-37.25,76.5,48.0,30.75,158.25,1
77.5,-24.25,219.25,-7.5,74.5,31.0,57.0,165.75,1
405.25,-27.25,350.0,27.25,65.75,26.0,59.5,134.5,1
611.5,-21.0,467.5,48.75,57.0,4.25,68.0,55.75,1
560.5,-37.0,193.25,62.25,33.0,-11.75,70.75,10.75,1
512.5,-32.75,-171.75,60.5,26.25,-7.25,90.0,40.25,1
426.75,-31.0,-423.0,49.5,8.0,-2.25,105.0,62.75,1
330.5,-27.0,-580.25,48.5,10.25,-8.25,107.25,55.0,1
264.25,-19.0,-322.0,53.0,8.25,11.25,130.75,30.0,1
143.75,-16.25,40.5,55.25,-0.25,39.5,134.75,74.25,1
56.75,2.0,87.5,22.75,-12.5,18.0,128.0,107.0,1
-19.5,20.5,-62.5,-2.25,-16.25,18.5,126.5,79.25,1
-140.75,28.75,75.25,6.0,5.25,15.25,136.75,97.5,1
-252.25,18.0,268.75,20.25,0.25,18.75,124.5,91.5,1
-265.0,33.25,566.25,15.75,-3.75,24.5,116.5,90.75,1
-259.25,25.75,843.25,-26.75,-17.0,24.0,103.75,75.75,1
-224.75,2.0,440.0,-24.25,-7.5,27.0,93.75,85.25,1
-204.5,-6.0,-98.5,-5.0,-12.75,16.75,98.25,98.25,1
-181.25,-6.75,-611.75,-19.5,-20.25,9.25,81.25,26.0,1
-74.75,-27.25,-735.5,-46.0,4.0,-5.5,69.75,-25.75,1
28.5,-54.25,-274.25,-93.25,-7.5,2.75,69.75,-67.0,1
129.0,-50.25,-94.0,-102.75,-16.75,2.25,50.75,-36.75,1
180.25,-34.0,-179.5,-111.0,-29.0,-7.0,35.0,-5.75,1
219.5,5.5,-194.75,-104.75,-51.0,11.5,25.5,-38.75,1
259.0,-6.25,-41.5,-73.75,-57.0,11.5,36.25,-29.25,1
225.75,-27.0,196.25,-82.75,-52.5,5.25,44.25,-18.5,1
142.75,-18.25,631.75,-78.25,-52.5,9.0,63.5,19.75,1
102.75,-10.75,859.0,-64.25,-49.75,19.5,78.25,37.5,1
72.5,17.0,433.75,-53.0,-51.25,20.75,66.25,4.5,1
37.75,16.75,-153.25,-70.0,-60.75,12.25,61.75,-28.0,1
11.0,27.0,-758.25,-81.25,-73.5,27.0,56.75,-95.75,1
-22.75,53.5,-944.5,-73.5,-87.5,32.75,63.0,-117.5,1
-36.5,76.25,-777.0,-82.0,-85.0,37.0,56.5,-134.5,1
-46.5,64.25,-686.75,-47.25,-88.0,30.25,48.75,-163.5,1
-78.25,41.0,-390.0,-25.5,-99.25,18.5,52.25,-112.0,1
-103.0,25.0,-9.75,-39.25,-88.75,20.0,56.5,-82.0,1
-150.0,-3.5,122.25,-45.25,-92.0,1.0,57.25,-65.5,1
-209.0,-18.5,-26.0,-15.5,-103.25,-24.0,51.75,-74.75,1
-197.0,-8.25,50.0,26.75,-114.5,-20.25,43.75,-88.5,1
-169.25,12.0,171.75,26.25,-110.25,15.5,52.75,-92.5,1
-134.0,-16.0,82.25,-9.75,-90.25,6.25,47.75,-116.75,1
-85.25,-15.75,137.5,-23.5,-72.75,15.75,48.0,-125.25,1
-80.25,-3.0,172.25,-27.25,-69.0,27.5,53.75,-106.25,1
-45.75,-1.75,334.5,-20.5,-95.5,14.25,53.5,-90.5,1
-13.0,7.25,555.5,-40.5,-103.75,18.5,54.25,-71.0,1
-3.0,9.0,229.25,-38.0,-109.0,29.0,42.25,-43.0,1
-4.75,37.25,-294.25,-12.75,-111.25,35.0,53.25,-64.0,1
-6.0,55.5,-421.0,-29.0,-111.75,26.75,51.5,-94.0,1
0.5,39.5,-396.75,-29.0,-90.75,23.25,64.5,-79.5,1
-21.75,10.75,-278.75,-39.0,-65.5,18.0,59.75,-4.25,1
-52.5,-4.25,89.5,-36.0,-47.0,9.5,53.75,79.0,1
-79.75,-24.25,697.0,-38.0,-40.75,-3.5,64.0,137.75,1
-82.0,-42.75,900.0,-20.75,-41.75,16.5,60.75,178.75,1
-79.5,-49.25,351.25,-14.5,-23.25,39.0,67.5,205.0,1
-65.0,-77.25,-457.5,-22.25,-5.25,17.75,60.0,111.5,1
-63.25,-80.5,-947.75,-5.5,12.0,15.0,62.5,-35.25,1
-71.0,-28.25,-835.25,12.75,24.25,24.75,67.0,-186.0,1
-80.75,7.5,-581.0,49.25,12.75,23.25,78.0,-437.75,1
-61.0,-1.75,-278.75,29.5,3.25,33.25,67.25,-444.25,1
-34.5,-6.5,-133.5,9.25,6.5,34.0,55.25,-134.5,1
-42.5,-23.25,-5.5,24.75,-1.25,41.25,48.0,47.25,1
-35.0,-24.25,47.5,19.0,4.0,45.25,37.75,23.0,1
-67.5,-35.5,11.75,24.5,7.0,60.25,48.25,-62.0,1
-102.75,-38.25,156.5,30.0,1.75,69.75,47.75,-64.25,1
-97.0,1.0,276.75,17.0,8.25,75.75,57.25,46.25,1
-89.75,-7.25,334.5,-2.0,14.75,71.5,49.75,109.0,1
-83.75,-18.5,279.5,-14.75,26.5,46.5,50.0,176.25,1
-78.25,-39.5,291.0,-39.75,29.5,26.25,45.5,175.0,1
-58.75,-40.5,320.25,-29.5,22.5,33.0,42.75,177.25,1
-53.25,-6.25,261.75,-27.25,-1.25,45.0,47.75,200.0,1
-47.5,10.5,204.5,-38.0,-17.25,39.0,35.5,194.25,1
-50.5,21.0,121.25,-31.0,-18.0,34.5,31.5,179.75,1
-48.0,29.25,123.25,-32.0,-23.25,38.5,33.75,112.75,1
-59.75,26.5,118.5,-7.25,-9.0,30.75,43.75,117.25,1
-64.25,18.25,53.5,-5.5,4.0,32.5,24.0,101.75,1
-50.5,23.75,84.25,-11.0,19.0,33.5,21.0,98.25,1
-91.25,14.25,135.25,-8.75,28.25,29.5,24.25,157.25,1
-127.75,10.5,163.75,-9.0,37.5,31.0,14.5,169.25,1
-107.5,7.0,244.25,-19.75,51.25,24.25,7.0,138.25,1
-89.0,11.75,88.25,-25.5,58.25,23.75,6.0,123.0,1
-55.75,2.25,-151.25,-16.0,46.0,30.75,2.75,167.25,1
1.25,-12.25,-303.0,-19.0,38.0,31.25,-4.0,181.75,1
28.0,-17.0,-310.0,-10.5,46.5,27.75,-5.75,184.0,1
30.75,-9.5,-155.75,-9.75,50.0,29.0,-12.5,197.25,1
4.25,-1.75,-191.75,-12.5,36.0,18.75,-9.0,190.25,1
9.75,-0.25,-199.0,-6.0,38.0,24.25,-18.25,155.75,1
15.5,16.0,-153.5,7.75,47.5,21.75,-15.25,85.5,1
17.0,7.5,-5.0,8.25,38.5,20.5,-24.5,63.5,1
94.0,20.75,317.25,24.5,38.5,20.75,-42.25,62.75,1
208.25,25.0,534.25,25.25,45.0,21.75,-49.5,25.0,1
222.25,24.5,588.25,11.75,39.75,28.5,-63.75,-19.25,1
171.5,23.5,363.25,13.75,42.75,1.75,-61.5,46.0,1
177.75,13.75,7.5,-5.5,39.75,6.5,-70.75,116.5,1
95.0,9.25,-206.25,3.75,32.25,1.25,-61.5,72.0,1
-8.5,5.75,-308.0,-3.25,25.0,-8.0,-53.75,84.0,1
-123.75,16.75,-293.5,-21.75,17.75,8.75,-47.75,56.5,1
-300.25,2.0,-284.0,-15.0,27.75,-1.5,-36.0,39.75,1
-340.75,9.75,-395.5,-1.0,27.75,-10.25,-35.75,53.25,1
-378.25,27.75,-382.5,4.25,35.25,-7.5,-38.25,69.0,1
-373.5,21.75,-257.0,-1.75,50.5,0.0,-37.5,82.0,1
-232.75,33.25,-95.0,16.75,53.0,4.0,-32.75,59.5,1
-154.25,42.5,18.0,5.25,55.75,5.75,-49.0,58.5,1
19.5,33.25,8.5,-13.0,76.5,2.75,-46.25,20.25,1
209.5,26.0,109.25,-11.25,108.25,8.5,-50.0,37.0,1
277.5,-2.25,108.0,-22.5,131.5,14.5,-59.0,18.25,1
377.5,7.25,77.25,-4.25,143.25,27.0,-82.0,5.25,1
557.75,8.0,50.5,-5.0,159.5,42.5,-90.5,16.0,1
512.0,-18.0,-211.75,-20.25,165.0,42.5,-80.0,-13.5,1
60.75,-19.75,-255.75,-13.0,166.0,40.75,-94.0,-19.75,1
-71.5,-23.75,-218.25,-5.5,175.5,24.75,-93.0,2.0,1
-42.5,10.0,-260.75,-19.25,150.5,18.0,-96.5,23.75,1
-35.25,17.75,-192.25,-39.0,148.75,11.0,-99.75,2.25,1
90.75,38.5,-130.0,-28.25,148.0,13.0,-116.5,-0.75,1
96.25,41.0,-78.0,-15.25,132.75,6.75,-117.25,-2.75,1
150.75,33.25,-107.5,-19.0,116.25,-5.75,-116.5,-30.5,1
194.25,55.75,-101.25,-14.0,94.0,15.25,-133.5,-82.5,1
133.75,51.25,-66.25,-3.75,94.75,21.75,-148.75,-140.25,1
108.25,43.0,-43.0,-9.0,82.5,21.5,-149.25,-171.5,1
201.0,24.25,43.0,-13.25,67.25,22.75,-96.5,-101.25,1
261.0,8.25,145.0,-9.25,64.75,14.0,42.75,-33.75,1
237.75,-12.25,177.0,-0.5,62.75,16.25,227.75,-64.5,1
217.75,-11.75,147.75,16.0,77.75,40.5,370.5,-80.75,1
189.0,0.5,166.5,23.0,75.0,34.75,478.75,-108.5,1
60.25,1.75,270.0,6.25,70.5,27.75,565.75,-87.5,1
-29.75,8.5,476.75,-3.75,60.25,28.25,591.5,-66.75,1
129.75,6.0,454.25,1.5,49.75,27.25,549.0,-56.75,1
280.25,16.25,230.0,-21.0,47.25,31.75,377.75,-43.5,1
79.0,42.75,-1.25,-27.5,54.0,31.25,139.5,-48.5,1
-192.0,42.5,-290.0,-35.25,41.5,45.25,-123.5,-41.75,1
-367.5,20.0,-423.0,-38.0,16.5,37.25,-363.5,-48.75,1
-448.5,11.25,-398.75,-20.5,15.5,21.25,-516.0,-42.5,1
-318.25,-14.5,-407.5,-17.75,6.0,11.75,-624.25,-54.0,1
-135.0,-27.5,-266.5,-9.25,13.25,4.25,-678.5,-53.5,1
-3.5,-9.0,-88.75,-21.5,-4.25,11.5,-711.5,-61.5,1
46.25,-15.5,-50.5,-31.75,-13.25,6.75,-614.25,-74.25,1
96.0,-15.0,-28.25,-22.0,-13.0,2.0,-342.75,-73.25,1
-5.0,-7.75,-52.0,-30.75,-22.5,19.5,49.5,-72.25,1
-89.5,-18.0,25.0,-37.75,-18.0,33.5,526.75,-72.0,1
-82.75,-13.5,94.25,-42.75,-28.25,31.75,929.25,-75.0,1
-63.75,-8.25,91.25,-28.75,-34.75,15.5,1011.5,-63.25,1
-1.25,-30.25,136.5,-18.25,-31.25,11.25,1014.75,-49.25,1
88.5,-24.0,124.0,-28.0,-31.5,18.0,1014.0,-20.25,1
179.75,-17.25,75.25,-28.0,-23.75,22.5,1017.75,-14.5,1
118.75,-19.0,51.5,-35.0,0.0,20.75,1023.5,-6.0,1
59.5,-7.75,114.0,-46.75,12.75,23.25,913.25,22.5,1
-38.5,-3.75,110.5,-30.25,-7.5,16.75,708.75,-12.5,1
-12.0,19.75,72.75,-20.5,-20.0,14.75,459.25,-51.5,1
120.75,30.75,19.0,0.0,-31.5,24.5,205.25,-51.5,1
142.75,26.5,60.25,21.75,-68.25,16.25,19.5,-60.5,1
158.5,29.75,140.5,17.75,-79.75,1.75,-149.0,-94.5,1
205.25,38.25,13.5,22.0,-112.25,-6.5,-296.5,-105.75,1
149.5,40.75,-72.5,34.75,-161.25,-11.0,-384.75,-95.75,1
2.0,36.5,-107.5,78.75,-178.0,11.25,-391.5,-154.5,1
-129.5,15.5,-140.75,138.5,-173.25,29.5,-321.0,-257.5,1
-185.25,-31.5,-94.75,186.0,-92.25,45.75,-236.0,-297.5,1
-256.75,-101.5,-42.5,246.0,81.25,95.0,-172.0,-325.5,1
-742.75,-224.25,16.25,395.5,420.0,165.5,-101.5,-485.0,1
-941.75,-439.75,150.25,618.25,767.25,249.5,-53.0,-507.5,1
-743.0,-579.5,318.25,578.75,696.0,261.5,-33.25,-356.75,1
-730.5,-496.5,352.0,506.0,476.0,175.5,-10.5,-172.25,1
-792.5,-353.75,273.5,415.75,305.25,124.0,44.5,-18.25,1
-617.25,-231.25,245.5,181.25,81.25,88.0,121.0,30.0,1
-506.25,-116.75,187.0,74.5,-18.5,42.75,232.75,101.25,1
-249.25,-47.0,94.0,15.5,-109.5,7.25,336.25,182.5,1
251.0,-5.5,57.75,-160.5,-218.5,-37.5,421.75,149.0,1
1056.75,27.0,191.5,-295.25,-261.75,-48.75,512.75,179.75,1
1351.75,93.0,410.75,-441.75,-322.25,-67.75,568.0,291.5,1
1481.75,160.0,434.25,-517.0,-337.25,-94.5,576.75,414.25,1
1420.0,222.5,58.25,-578.75,-365.5,-98.5,539.0,496.75,1
841.25,256.5,-302.0,-614.75,-328.25,-93.75,464.25,554.75,1
51.75,254.5,-363.75,-589.5,-261.5,-85.25,357.0,498.25,1
-147.25,279.25,-584.75,-542.25,-195.0,-72.0,222.0,431.0,1
-263.5,248.25,-710.75,-433.75,-79.75,-37.5,84.75,371.25,1
-320.25,178.0,-582.75,-375.75,-49.75,-39.0,-37.5,338.25,1
-358.0,153.25,-409.0,-392.25,-111.0,-70.0,-135.0,321.5,1
-66.75,185.75,-291.0,-427.25,-185.75,-98.25,-195.75,270.5,1
75.75,234.75,-174.5,-429.75,-265.0,-95.0,-228.25,351.5,1
17.75,311.25,-113.75,-503.5,-446.0,-130.5,-252.5,581.5,1
-145.0,395.5,-147.5,-537.25,-523.5,-146.25,-235.25,644.75,1
-196.5,374.5,-108.75,-503.5,-373.75,-100.25,-200.0,595.5,1
-130.75,305.0,-121.5,-452.75,-190.25,-74.5,-186.75,549.75,1
-363.0,222.0,-31.0,-403.75,12.0,-22.0,-194.75,497.0,1
-321.75,131.75,95.5,-369.5,164.25,-0.75,-197.75,501.25,1
-358.0,45.5,236.25,-329.25,280.5,21.5,-206.25,425.0,1
-322.25,-20.25,464.0,-268.5,367.25,58.75,-225.0,374.0,1
-302.0,-71.75,498.5,-210.75,420.25,72.0,-245.5,301.75,1
-291.5,-132.0,351.75,-130.0,436.25,68.25,-270.5,199.0,1
-142.5,-181.5,412.5,-56.5,407.0,54.0,-293.25,110.75,1
-143.75,-183.5,381.5,1.75,359.25,63.5,-297.75,15.5,1
-53.0,-167.75,55.0,49.5,284.0,46.75,-288.0,-69.25,1
-75.75,-159.75,-102.5,93.0,209.75,52.25,-278.25,-167.5,1
-106.25,-141.0,-177.25,140.0,119.5,58.75,-247.0,-194.25,1
261.0,-141.25,-210.75,184.0,25.5,22.75,-210.25,-250.75,1
374.0,-136.25,-152.0,242.25,-63.75,4.25,-172.75,-328.0,1
-23.0,-121.5,64.0,291.0,-163.5,-11.5,-129.25,-364.25,1
-708.0,-79.75,108.75,327.5,-238.0,-33.5,-106.25,-399.25,1
-962.5,-47.0,188.5,361.75,-293.75,-48.25,-95.0,-438.75,1
-1221.0,-39.0,273.0,367.0,-317.25,-54.25,-87.5,-452.5,1
-988.25,-16.75,79.75,359.5,-298.25,-49.0,-106.75,-422.0,1
-706.75,25.5,152.5,357.75,-254.75,-30.5,-113.25,-366.0,1
-343.0,62.75,101.5,348.25,-190.75,-10.75,-98.25,-303.25,1
0.25,121.75,-234.25,319.25,-122.5,-0.25,-101.25,-310.5,1
102.5,175.0,-401.0,296.25,-49.0,13.25,-103.5,-312.75,1
32.25,125.0,-246.25,269.5,3.0,24.5,-113.25,-280.5,1
164.25,67.75,-80.0,265.5,51.75,50.25,-126.5,-290.75,1
221.5,30.75,37.5,273.0,91.75,61.5,-122.25,-340.0,1
193.25,0.0,157.5,259.0,102.75,64.5,-139.5,-250.75,1
369.0,-32.5,94.0,213.25,120.0,82.75,-147.5,-117.25,1
403.0,-55.25,-5.75,169.5,122.25,83.75,-145.5,-184.25,1
411.75,-57.5,-98.75,152.75,129.0,88.0,-145.25,-271.25,1
400.0,-69.5,-169.75,120.25,130.75,77.75,-123.0,-208.0,1
431.5,-47.5,-191.75,100.75,132.5,87.25,-107.0,-176.25,1
436.0,-54.5,-192.0,98.25,135.25,87.25,-91.25,-244.0,1
362.75,-73.75,-151.0,94.25,130.5,70.5,-78.25,-193.75,1
325.0,-73.25,-91.0,87.75,131.5,69.25,-60.5,-84.5,1
469.0,-78.0,-93.75,43.5,114.75,56.5,-32.0,-86.0,1
532.75,-89.5,-148.25,21.5,109.25,61.75,-24.5,-16.0,1
310.5,-76.75,-194.25,28.75,105.75,79.0,-10.5,-8.5,1
154.0,-59.75,-208.75,23.25,93.0,85.0,-28.25,-45.5,1
14.25,-53.5,-187.25,8.5,87.5,77.75,-32.75,-34.5,1
-48.5,-50.5,-1.25,18.5,74.75,84.5,-35.5,-28.25,1
163.25,-49.0,273.75,34.5,71.5,88.0,-49.0,-37.75,1
59.75,-38.75,106.75,22.75,55.25,67.25,-43.0,-66.25,1
-124.25,-67.25,-302.0,-1.5,57.0,66.75,-76.0,20.0,1
-59.25,-70.75,-343.5,-24.25,65.25,64.75,-93.5,55.5,1
-128.75,-46.25,-169.25,-24.75,60.25,44.5,-117.75,47.25,1
-37.25,-16.0,75.25,-43.0,57.25,36.0,-133.5,29.0,1
47.5,-8.5,150.75,-56.75,64.25,23.75,-134.75,23.75,1
-50.0,-16.5,50.5,-47.25,73.25,10.75,-149.25,41.25,1
-162.25,-24.25,64.25,-49.0,89.25,29.5,-158.75,37.25,1
-190.0,-52.75,56.5,-35.5,119.25,73.75,-158.75,81.0,1
-206.5,-45.75,-32.25,-39.0,142.5,76.25,-155.25,138.0,1
-274.5,-41.75,-8.5,-60.75,162.5,66.75,-151.5,198.5,1
-211.5,-40.0,116.75,-86.0,178.5,78.25,-145.0,197.5,1
-80.25,-34.0,81.0,-81.75,203.75,79.25,-130.25,157.0,1
47.75,-32.75,13.5,-94.75,230.5,81.0,-103.75,153.75,1
147.75,-34.25,-134.75,-100.75,262.25,84.25,-81.0,135.0,1
203.75,-48.75,-230.75,-84.5,309.5,78.75,-54.0,108.5,1
207.0,-51.25,-227.75,-79.75,310.5,80.75,-28.0,207.25,1
161.0,-34.0,-219.25,-60.5,333.25,77.5,-6.0,282.5,1
99.5,-33.75,-137.75,-73.0,349.5,71.5,8.25,231.75,1
30.75,-32.75,-19.5,-79.75,314.25,68.75,18.5,205.5,1
-31.25,-12.25,280.5,-70.25,303.5,51.5,34.0,155.0,1
-82.0,1.0,448.0,-53.75,253.5,47.75,46.0,97.25,1
-62.25,12.75,208.25,-48.25,211.25,36.25,69.25,38.5,1
7.25,14.75,-235.75,-53.75,165.75,21.25,75.5,-77.25,1
17.5,4.0,-425.25,-57.75,124.5,10.25,93.25,-76.25,1
-44.25,19.25,-289.75,-61.0,79.75,-5.0,131.75,61.5,1
-3.5,60.5,-53.5,-54.75,25.25,-8.75,178.0,98.5,1
61.5,67.75,17.0,-57.25,13.75,-11.25,226.0,94.25,1
-29.25,62.25,-80.25,-59.75,-21.0,-2.25,252.5,105.75,1
-31.5,57.75,17.75,-62.0,-42.5,-0.25,279.0,68.5,1
-68.0,61.0,89.5,-47.75,-59.0,-14.5,290.75,66.75,1
-136.0,54.5,233.0,-39.25,-82.75,-15.0,294.75,37.75,1
-45.5,31.5,395.5,-46.25,-93.5,-27.0,296.5,24.0,1
-22.25,44.75,524.25,-43.5,-119.5,-34.25,313.5,27.75,1
13.75,43.5,359.75,-36.0,-125.25,-32.0,321.5,13.75,1
39.75,50.25,-190.5,-40.25,-128.0,-29.0,326.5,23.0,1
75.5,67.25,-433.75,-34.5,-154.75,-30.75,325.25,29.0,1
124.0,59.25,-456.75,-12.25,-154.5,-31.0,315.5,16.0,1
97.0,61.75,-269.0,-5.25,-148.25,-25.5,298.0,-3.25,1
103.0,66.5,-154.5,-24.75,-157.25,-35.25,264.75,-24.75,1
57.25,45.75,-156.25,-25.0,-151.5,-31.5,231.25,-63.25,1
50.5,37.25,-45.0,-15.5,-153.75,-32.25,194.5,-61.75,1
80.25,45.0,259.75,-14.75,-154.75,-37.5,174.5,-29.25,1
75.0,26.75,441.0,-12.5,-149.25,-40.75,145.75,-8.25,1
80.25,27.5,265.5,-12.25,-138.5,-33.25,128.75,-1.75,1
3.25,10.25,369.0,-13.5,-122.75,-32.0,132.0,-13.25,1
-125.75,7.5,185.75,-22.5,-121.0,-26.0,128.25,-20.0,1
-214.75,7.0,-130.25,-25.0,-106.75,-18.5,107.5,-5.0,1
-272.25,-6.25,-140.75,-22.0,-102.0,-15.0,81.0,1.25,1
-314.5,11.5,-60.5,-8.5,-79.25,-0.75,62.5,17.25,1
-292.5,20.75,161.25,12.25,-79.5,1.25,33.5,23.0,1
-201.0,30.5,90.25,12.5,-83.0,8.5,18.0,33.5,1
-84.75,42.5,-109.75,14.25,-62.25,10.25,-5.75,51.5,1
-44.25,49.75,-176.5,20.75,-56.5,7.0,-21.5,39.5,1
-67.25,45.25,-196.25,13.75,-61.0,7.25,-25.75,45.75,1
-52.0,38.5,-121.25,0.75,-50.25,14.0,-45.0,24.25,1
-30.5,36.0,-70.0,5.0,-32.0,24.75,-62.25,9.0,1
-33.0,22.5,-115.25,11.75,-37.25,38.0,-56.5,69.0,1
-4.0,8.25,-49.75,0.75,-23.5,46.0,-30.25,95.25,1
54.5,22.75,32.25,8.25,-4.5,66.5,-6.75,103.25,1
106.25,37.5,59.25,28.0,9.25,66.5,10.0,85.0,1
113.75,8.25,159.75,23.25,17.5,32.75,17.5,35.75,1
70.0,9.0,238.0,22.25,18.25,20.25,25.75,23.75,1
22.25,24.0,128.75,6.75,28.0,10.75,7.5,-0.5,1
-0.25,11.25,-14.0,-12.0,33.5,11.5,-19.0,-47.25,1
-37.75,-2.75,67.0,-19.0,49.5,-7.75,-52.0,-4.75,1
-146.0,-14.75,360.0,-21.75,46.5,-5.5,-72.0,59.5,1
-187.75,-22.75,477.5,-15.75,61.25,17.25,-79.75,39.75,1
-162.0,-37.75,332.25,-28.0,65.5,10.5,-98.5,38.5,1
-155.0,-38.25,229.25,-43.0,66.75,14.25,-105.25,35.5,1
-105.5,-33.0,137.5,-52.5,65.75,16.75,-111.0,66.25,1
-84.0,-37.0,187.25,-64.25,53.0,25.75,-111.75,112.0,1
-99.25,-30.0,163.5,-65.25,62.0,21.0,-107.75,146.75,1
-77.25,-12.25,-18.5,-62.25,53.75,-1.75,-94.25,123.75,1
-33.5,12.25,-266.25,-54.25,44.75,5.75,-73.75,62.25,1
-17.75,24.5,-577.25,-49.75,40.5,-0.75,-51.75,90.5,1
-12.75,-8.0,-679.75,-30.0,23.75,4.0,-17.75,57.5,1
10.0,-15.25,-588.5,-28.25,13.5,22.5,25.0,-67.25,1
101.75,-25.0,-373.75,-37.0,-1.0,14.5,43.75,-234.25,1
232.25,-48.0,-252.5,-4.0,-2.25,25.75,48.0,-315.0,1
281.0,-49.0,-380.25,-2.25,-3.0,31.25,57.0,-229.0,1
277.0,-70.75,-385.5,13.5,-2.5,41.0,57.5,-178.25,1
195.25,-74.0,-294.5,36.5,-6.75,33.75,67.0,-168.25,1
35.0,-61.5,-84.75,48.0,-2.5,17.25,67.25,-71.75,1
-64.25,-28.75,166.25,50.5,-6.5,26.0,57.75,-0.25,1
-132.0,-11.75,362.25,25.25,-4.5,41.25,52.5,-15.5,1
-170.25,11.25,492.25,-27.75,-5.5,52.75,39.75,7.25,1
-118.5,58.75,412.0,-54.5,-8.5,46.75,20.75,-4.25,1
-75.0,64.5,385.25,-29.25,-8.5,40.25,-37.75,-42.5,1
-40.25,55.25,419.25,-22.0,-15.0,34.0,-91.75,-77.0,1
22.0,8.0,491.75,-15.0,-6.0,38.25,-111.0,-110.75,1
110.75,-46.75,426.5,-45.0,-2.25,41.0,-120.0,-123.75,1
111.75,-85.75,231.75,-47.75,2.0,49.5,-139.5,-125.75,1
-13.25,-82.25,192.5,-45.0,2.75,38.5,-158.0,-88.75,1
-88.0,-54.5,181.75,-38.25,16.75,27.25,-162.0,-103.0,1
-102.0,-58.25,89.0,-46.0,31.5,22.25,-155.25,-67.5,1
-157.0,-61.25,-149.5,-61.5,26.5,23.5,-155.25,-37.75,1
-67.25,-83.5,-242.25,-65.25,32.25,37.0,-167.75,-43.5,1
110.75,-104.5,-450.5,-79.25,50.0,24.25,-166.5,-29.25,1
176.75,-97.5,-437.0,-53.5,50.5,24.0,-157.5,-24.75,1
125.75,-66.25,-274.75,-33.5,39.0,34.25,-155.0,-7.75,1
58.5,45.0,21.5,-12.0,44.0,40.0,-148.0,-7.5,1
8.75,161.25,260.25,-19.75,33.5,31.5,-131.75,9.75,1
-132.25,231.0,-1.25,-36.75,28.25,21.25,-122.5,-2.0,1
-285.0,274.0,-438.5,-39.0,18.25,15.0,-108.5,5.5,1
-353.25,240.75,-757.75,-39.25,9.75,12.25,-83.5,21.75,1
-401.25,168.5,-510.25,-32.25,13.0,10.75,-79.25,26.75,1
-456.5,93.5,-74.0,-9.75,5.0,14.0,-77.75,46.5,1
-487.5,40.75,570.75,21.0,10.5,18.0,-51.0,48.5,1
-458.25,36.75,188.75,21.75,3.5,15.5,-16.5,60.75,1
-341.5,-12.75,-694.25,-1.5,-4.0,26.0,5.25,66.25,1
-192.0,-38.0,-903.25,17.5,-6.0,32.75,15.0,70.75,1
-54.5,-32.25,-721.0,26.25,-7.5,32.25,39.5,80.0,1
80.25,-46.0,-125.25,10.75,3.25,34.0,44.75,82.5,1
170.5,-50.75,-161.5,15.75,-5.75,28.0,50.5,97.0,1
220.5,-59.25,-8.5,-0.75,-11.5,38.75,93.0,110.75,1
301.75,-48.0,32.5,-8.75,4.25,35.5,93.75,118.75,1
343.0,-43.5,11.75,-19.25,2.0,30.5,110.5,107.75,1
318.0,-53.5,76.0,-16.75,-1.5,29.25,132.75,107.25,1
275.0,-45.5,-66.0,-17.0,0.5,25.5,129.25,121.0,1
206.5,-32.75,-69.25,-54.75,0.25,25.75,139.25,119.25,1
101.25,23.75,2.25,-61.5,16.75,11.0,127.75,132.0,1
-5.25,39.5,211.0,-47.75,23.75,8.25,129.5,126.75,1
-78.25,2.0,151.0,-44.0,34.25,23.0,128.25,137.5,1
-147.25,1.25,255.75,-65.5,32.25,32.5,120.25,136.5,1
-159.0,-4.75,189.0,-83.0,25.75,27.25,113.0,122.25,1
-85.5,-19.5,135.5,-76.0,33.5,20.75,102.5,117.5,1
-35.75,-34.25,332.25,-64.25,38.25,9.5,86.0,113.25,1
39.0,-37.5,301.5,-64.25,36.25,2.25,84.5,122.0,1
78.75,-35.75,650.5,-67.0,35.5,11.75,80.75,120.0,1
38.0,-20.25,959.75,-57.5,30.5,8.75,70.25,114.0,1
23.75,-9.75,662.0,-66.25,21.25,14.75,72.0,104.25,1
-19.0,-26.25,382.75,-46.25,22.5,15.25,45.5,104.5,1
-71.5,-31.25,381.25,-26.0,21.0,12.0,41.5,101.25,1
27.5,-17.25,444.75,-11.25,25.75,23.0,49.75,93.25,1
151.25,19.0,399.5,18.5,15.25,21.25,52.25,75.5,1
223.25,31.75,92.5,29.75,22.25,13.0,35.5,67.0,1
269.75,24.75,6.0,29.75,17.5,0.5,20.75,66.75,1
301.25,27.75,-62.5,35.5,2.5,5.5,30.5,45.25,1
308.0,18.5,-8.5,60.75,0.25,24.75,31.0,38.25,1
290.25,-1.75,-203.0,59.5,-15.5,28.75,35.25,30.5,1
224.75,-26.25,-949.0,48.25,-19.0,19.75,8.0,13.25,1
93.5,-38.0,-929.75,44.25,-25.0,35.75,-8.0,11.25,1
-32.0,-22.0,-551.25,27.75,-26.0,40.25,-4.75,1.5,1
-96.5,-15.0,313.25,27.75,-3.75,37.5,-12.5,-14.25,1
-144.75,-16.75,871.5,40.0,33.5,38.25,1.5,-22.25,1
-188.0,-22.25,277.5,64.25,55.25,21.75,8.25,-19.75,1
-212.5,-8.25,-335.25,40.5,62.75,13.25,-7.0,-30.0,1
-257.5,23.75,-992.75,-23.5,78.0,9.75,3.5,-48.0,1
-205.25,44.5,-1027.5,-45.0,72.75,17.0,14.75,-54.0,1
-115.0,57.0,-668.75,-44.75,58.5,28.75,24.0,-39.75,1
-130.5,52.75,-497.5,-56.0,65.75,32.75,45.25,-45.5,1
-171.0,41.0,-280.75,-28.75,68.5,55.0,54.0,-65.25,1
-238.25,13.5,-257.5,-13.75,53.0,66.5,55.5,-60.75,1
-222.25,12.5,-141.75,-33.5,53.0,46.75,55.5,-61.5,1
-171.25,6.75,-169.0,-12.75,57.0,43.5,69.5,-62.75,1
-100.5,-18.0,-53.0,-46.25,52.75,47.5,72.0,-64.0,1
10.75,-47.5,235.75,-77.25,31.75,42.75,64.75,-72.75,1
176.25,-53.5,257.5,-73.75,15.0,44.25,48.75,-76.25,1
367.75,-56.5,359.25,-82.5,2.75,38.25,49.0,-67.75,1
412.0,-67.5,376.0,-70.25,13.5,34.25,63.25,-77.0,1
360.0,8.75,371.0,-77.25,29.0,31.5,56.75,-108.75,1
256.0,56.5,315.0,-60.5,33.75,19.5,63.75,-100.5,1
231.25,34.5,197.5,-49.25,51.75,27.5,59.25,-67.0,1
334.75,28.0,264.5,-26.75,41.25,27.75,56.5,-70.5,1
291.25,22.5,192.0,-14.0,38.0,10.5,43.0,-73.0,1
92.5,13.75,6.5,-39.5,50.25,22.0,28.25,-73.75,1
-10.75,6.5,-129.0,-43.5,40.5,26.25,20.25,-68.0,1
-196.0,1.75,-159.5,-57.5,19.5,33.0,-1.0,-76.0,1
-392.5,-1.0,3.0,-49.0,27.0,20.75,-10.25,-91.0,1
-412.5,6.5,149.75,-42.0,56.25,14.5,-10.25,-81.5,1
-430.25,-16.0,182.75,-29.75,45.0,26.25,-15.0,-66.5,1
-400.5,-34.5,87.5,-24.25,11.25,9.25,-14.5,-44.75,1
-264.5,-38.25,-177.5,-6.25,21.0,14.0,-15.5,-25.75,1
-87.0,-27.75,-262.5,-7.0,37.25,23.5,-41.75,-48.5,1
31.75,-22.0,-201.75,-25.25,28.25,24.75,-37.75,-105.5,1
161.75,-22.25,-76.5,-15.75,40.75,31.5,-16.0,-62.0,1
27.75,15.75,19.25,-16.75,34.75,21.75,-8.0,-27.5,1
-318.75,14.75,34.75,-11.5,30.0,26.25,5.0,-23.75,1
-422.5,1.75,121.5,-26.0,34.0,19.75,-2.75,36.25,1
-470.25,-4.5,3.25,-19.5,22.5,-2.75,4.5,21.5,1
-426.5,-8.25,-142.75,-5.5,22.5,24.75,14.75,-0.25,1
-265.0,-22.75,-124.5,-21.0,19.75,34.5,32.25,41.25,1
-175.5,-16.0,-163.75,-28.75,20.25,24.5,58.5,85.0,1
-80.25,14.5,-237.25,-3.75,23.25,26.0,68.5,89.5,1
211.25,8.0,-125.5,8.0,18.0,13.0,73.25,98.25,1
400.75,-7.75,-3.5,-2.5,16.0,12.75,82.75,117.25,1
298.5,-2.75,83.0,6.5,7.5,17.0,85.25,122.75,1
249.5,19.75,234.75,-6.0,6.75,21.5,73.25,133.75,1
139.0,11.25,383.0,0.0,2.25,31.0,53.5,141.75,1
103.0,-4.25,300.5,8.25,6.75,25.0,27.5,152.25,1
-37.5,-2.75,93.0,-6.5,14.25,20.75,10.75,149.75,1
-230.5,1.0,-2.25,-24.0,19.25,12.0,-0.5,154.5,1
-300.25,-5.5,-145.5,-30.75,24.25,15.5,-23.0,163.75,1
-275.75,-14.0,-204.75,-19.25,18.5,26.75,-33.5,163.5,1
-311.75,-29.0,-258.25,-16.0,14.5,15.75,-39.25,159.5,1
-309.0,-35.0,-296.25,1.25,12.5,13.75,-45.0,166.5,1
-45.5,-32.0,-108.75,12.5,3.5,-2.25,-51.25,155.25,1
-12.75,-29.0,31.0,22.5,-4.0,-9.75,-65.25,148.0,1
-69.25,-18.5,21.5,32.5,2.25,-0.5,-79.5,152.5,1
-36.5,-1.0,101.25,13.0,21.25,-11.0,-90.0,133.5,1
-163.25,31.75,195.5,13.25,29.5,-10.5,-100.5,136.5,1
-229.25,63.5,227.0,26.5,15.5,7.5,-100.75,137.0,1
1.25,76.5,332.25,25.5,11.0,5.0,-75.75,131.75,1
347.25,54.75,258.5,22.25,28.0,-0.5,-47.75,131.0,1
544.75,33.75,-32.5,11.25,31.5,7.25,-24.0,107.0,1
232.25,26.25,-125.75,-9.5,30.0,-8.75,-5.25,103.25,1
98.0,24.5,-133.25,-9.0,23.0,-0.5,20.25,109.5,1
120.5,8.75,-80.25,3.5,18.75,14.5,24.5,97.25,1
-92.75,4.5,-21.75,-11.5,29.0,18.75,39.0,91.0,1
-111.25,-4.25,16.75,-17.25,39.25,28.25,76.5,75.75,1
-118.75,-35.0,140.75,-17.0,27.0,11.25,97.0,68.25,1
-47.5,-39.0,63.5,-20.25,8.0,8.5,125.75,59.75,1
-156.0,-47.25,-80.25,-21.5,6.75,8.5,139.0,49.5,1
-139.25,-5.0,-181.5,-35.25,4.25,4.25,142.5,54.75,1
100.5,28.25,-228.0,-19.75,-12.5,4.5,152.5,50.25,1
-6.75,8.5,-123.0,-12.5,-23.25,7.75,177.75,52.5,1
-193.0,34.25,-56.5,-9.25,-11.25,10.75,198.0,40.0,1
14.25,56.5,-46.75,-12.25,-9.25,16.5,191.75,28.75,1
272.5,60.75,-47.5,-0.25,-22.75,38.0,187.5,24.0,1
107.5,69.75,-11.25,15.75,-36.25,27.25,171.75,-5.0,1
-24.25,66.0,-11.0,20.0,-53.0,27.0,149.25,-35.5,1
-144.0,53.5,-49.75,26.0,-49.5,36.25,159.0,-54.5,1
-264.0,37.0,12.25,29.25,-25.0,19.0,226.0,-39.75,1
-224.0,-3.0,33.5,14.0,-8.0,12.5,328.0,-21.75,1
-72.75,-3.75,36.75,-16.25,-25.75,-16.75,455.5,-26.0,1
148.75,-0.25,-3.5,-10.75,-10.75,-42.5,549.75,-24.25,1
201.5,-1.25,-109.0,-16.5,-17.0,-41.5,686.75,-33.5,1
196.75,7.0,-82.0,-26.75,-38.0,-36.5,805.75,-49.75,1
186.25,-4.25,-14.5,-24.0,-42.25,-22.25,872.0,-24.75,1
162.0,16.0,68.75,-11.0,-17.75,13.5,876.5,-22.75,1
128.25,10.0,110.25,-1.75,13.0,30.5,743.0,-42.75,1
242.75,-0.5,72.75,-5.5,6.0,30.75,512.75,-36.75,1
433.25,13.75,108.25,14.25,9.25,41.25,261.25,-43.5,1
419.75,5.0,149.25,3.0,36.25,38.25,17.0,-33.75,1
235.5,-8.25,157.5,-0.75,31.75,42.75,-250.75,-49.75,1
32.25,-17.5,162.0,-15.25,32.25,43.5,-587.25,-45.25,1
171.75,-20.5,141.25,-52.0,67.25,50.25,-938.0,-33.0,1
414.25,-16.5,65.25,-53.5,83.5,56.25,-978.25,-45.0,1
180.25,-1.25,-79.25,-45.5,83.0,65.5,-983.75,-47.0,1
-179.5,6.0,-153.0,-48.75,62.25,53.5,-986.75,-56.0,1
-255.75,15.5,-213.75,-49.0,55.25,62.75,-984.5,-34.75,1
-313.0,4.25,-278.25,-45.25,70.0,66.5,-714.0,-26.75,1
-166.5,-21.75,-250.75,-39.0,91.25,39.0,-303.5,-2.5,1
-63.75,-39.25,-149.5,-28.5,112.0,54.5,52.0,41.0,1
-70.25,-49.0,-111.5,-27.5,112.25,58.25,350.25,56.5,1
-4.25,-44.0,-111.0,-30.0,98.25,60.5,542.5,35.25,1
78.5,-73.5,-89.0,-21.25,74.75,67.5,630.5,11.75,1
68.0,-95.5,-144.25,-22.25,59.5,62.25,596.5,-29.25,1
-39.5,-93.75,-245.0,-38.75,65.5,56.0,456.25,-83.75,1
-25.5,-104.5,-379.0,-56.5,109.0,75.0,258.75,-91.25,1
15.25,-69.0,-441.5,-55.0,144.25,84.0,54.5,-116.5,1
48.25,-34.75,-248.0,-52.25,165.0,84.75,-108.75,-122.75,1
106.5,-5.0,-124.5,-59.25,158.75,64.5,-262.5,-5.75,1
284.0,50.0,131.5,-48.75,146.75,51.5,-401.75,22.25,1
291.25,97.75,414.75,-41.5,154.5,56.25,-507.75,0.0,1
110.5,119.5,417.25,-32.75,134.5,43.0,-535.5,43.0,1
82.25,99.0,351.75,-26.25,104.25,45.5,-527.75,22.75,1
101.0,64.5,183.0,-39.25,85.75,37.25,-498.5,32.0,1
82.75,25.25,233.0,-31.75,86.25,28.75,-435.0,10.75,1
69.0,-3.25,172.75,-13.5,41.25,32.5,-359.25,5.25,1
119.0,-22.75,34.5,-17.75,31.5,22.0,-270.25,-20.75,1
171.75,-38.0,90.5,-23.0,19.5,4.25,-157.0,-65.0,1
119.5,-28.25,190.0,-19.5,-19.25,11.5,-9.75,-34.5,1
141.75,-18.5,611.5,-20.5,-9.75,-12.0,152.75,-5.0,1
68.5,-15.5,859.5,-22.0,-36.5,-16.5,298.25,24.5,1
-61.0,-14.0,647.25,-25.5,-29.0,-11.75,436.75,19.5,1
95.25,-8.0,-381.75,-18.75,-20.25,-7.5,564.75,14.25,1
269.75,-1.25,-1058.25,5.5,-32.75,14.5,690.5,4.25,1
258.25,1.25,-1164.75,4.25,-30.5,8.75,817.25,-20.5,1
225.75,17.0,-987.0,1.5,-47.0,9.0,918.75,-57.75,1
150.25,19.25,-786.5,7.25,-50.75,7.25,1006.75,-97.25,1
-172.25,-12.0,-479.75,-2.75,-47.75,1.5,1016.0,-93.75,1
-458.0,-26.5,-354.0,-10.75,-32.5,-5.5,1013.0,-9.75,1
-444.0,-6.25,-440.0,-16.0,-12.75,13.25,939.75,-4.0,1
-444.5,-12.0,-289.0,-13.25,-22.0,2.75,852.0,-19.0,1
-574.75,-5.0,-124.75,-21.25,-24.0,25.5,726.0,3.0,1
-606.25,7.5,-126.0,-34.5,-4.0,72.0,596.0,-13.5,1
-587.5,15.25,-256.5,-19.25,9.75,35.25,477.25,6.0,1
-402.0,-0.25,-31.75,-13.0,-10.5,22.25,322.0,-13.25,1
-210.0,8.75,23.25,-2.25,-30.25,25.75,208.25,-19.25,1
-48.0,56.0,136.25,7.25,-46.25,4.25,105.0,-15.25,1
132.75,55.5,305.5,19.5,-47.0,-21.75,24.0,-25.25,1
108.75,43.75,302.0,25.5,-25.0,-25.75,-55.75,-37.25,1
70.0,17.0,366.5,20.75,-53.75,-14.5,-134.75,-50.25,1
122.0,5.75,435.75,-2.75,-69.5,-14.5,-192.0,-62.0,1
199.5,25.5,609.25,-2.5,-86.25,-14.25,-256.25,-84.25,1
287.0,47.5,571.75,18.25,-122.5,-1.75,-293.5,-99.75,1
476.5,69.25,324.5,29.5,-153.5,1.0,-307.75,-138.5,1
811.75,80.25,-24.25,54.75,-187.0,0.5,-308.5,-169.0,1
949.25,88.0,-288.0,75.25,-215.75,-2.0,-318.25,-192.75,1
478.75,86.75,-308.75,103.0,-253.25,-12.0,-323.25,-211.25,1
-1.0,100.25,-378.25,118.0,-263.5,-5.5,-355.75,-224.5,1
-137.5,113.5,-333.0,134.0,-260.0,-7.25,-372.5,-246.5,1
-225.5,100.25,-25.75,134.0,-221.5,-5.5,-383.75,-236.5,1
-205.0,75.25,268.0,133.25,-174.0,9.5,-384.75,-242.75,1
-172.75,46.5,348.5,142.0,-119.75,22.75,-363.75,-248.5,1
-194.25,-21.25,212.5,133.5,6.0,38.25,-355.0,-229.75,1
-320.0,-88.5,13.75,134.75,119.5,52.25,-324.75,-225.75,1
-433.75,-119.75,-26.5,143.0,225.75,74.75,-295.0,-197.75,1
-586.0,-148.0,124.75,141.25,292.5,85.5,-244.5,-167.25,1
-680.0,-155.75,245.25,130.0,292.75,68.5,-215.75,-79.75,1
-568.5,-129.5,404.5,58.75,220.25,40.0,-199.0,23.75,1
-360.25,-72.75,411.5,-20.5,131.75,21.75,-163.5,105.5,1
-152.0,-22.0,152.0,-97.75,61.0,-3.0,-161.5,191.0,1
23.25,29.75,-136.25,-175.5,13.0,-12.0,-141.5,236.75,1
114.25,45.25,-223.25,-194.5,15.75,-16.5,-145.75,290.5,1
241.5,72.75,-120.25,-233.0,-4.75,-34.0,-145.75,339.75,1
264.5,94.5,-87.75,-258.25,27.25,-31.0,-132.5,336.25,1
207.75,50.0,47.25,-249.5,41.0,-22.5,-141.25,371.25,1
204.25,33.75,132.0,-276.25,79.5,-25.75,-142.5,401.0,1
67.5,0.25,187.75,-301.75,143.25,-14.75,-150.5,403.0,1
-7.0,-39.5,281.75,-311.25,184.0,10.25,-160.5,399.0,1
-78.75,-67.5,374.5,-309.5,254.25,18.25,-146.75,374.25,1
-160.75,-72.0,493.25,-311.0,291.5,22.0,-131.5,380.75,1
-196.25,-79.75,365.75,-302.75,358.25,46.75,-122.75,390.5,1
-214.5,-116.0,174.0,-305.0,381.5,47.0,-117.75,377.5,1
-211.25,-134.0,97.5,-282.5,359.75,35.75,-129.0,339.0,1
-296.25,-145.0,160.0,-218.5,340.5,44.0,-129.0,300.5,1
-369.75,-121.75,456.0,-169.25,304.0,32.75,-127.75,268.25,1
-354.25,-124.5,452.0,-151.75,253.75,42.25,-105.0,223.25,1
-134.75,-139.25,66.0,-136.75,188.25,41.25,-78.5,166.75,1
128.75,-121.25,-159.0,-103.5,99.5,25.0,-74.25,104.0,1
108.5,-84.25,-137.0,-71.75,-9.0,6.0,-64.5,63.75,1
-69.25,-59.75,297.75,-35.0,-112.75,-16.25,-45.0,14.75,1
-359.5,-41.75,686.0,-17.75,-222.25,-24.75,-19.25,-26.75,1
-596.0,-18.5,518.5,12.75,-295.25,-45.5,-5.5,-88.0,1
-794.0,2.25,106.0,75.25,-365.75,-62.0,22.75,-152.25,1
-914.75,32.75,-237.25,120.5,-409.5,-70.0,34.25,-181.25,1
-756.75,67.5,-385.25,135.75,-400.75,-71.0,50.25,-172.75,1
-616.25,98.75,-296.5,139.0,-349.5,-73.0,47.75,-147.75,1
-596.75,115.25,-260.0,151.0,-293.25,-62.5,42.75,-156.5,1
-648.0,114.25,-89.25,159.75,-228.75,-51.75,66.0,-153.5,1
-438.5,105.0,101.0,153.25,-140.75,-36.75,72.5,-147.75,1
-77.25,126.25,-268.5,135.75,-79.5,-30.75,74.25,-145.0,1
115.0,147.75,-241.75,123.0,3.75,-28.5,79.75,-144.5,1
245.75,137.0,54.75,103.0,63.75,10.75,96.0,-119.75,1
309.5,104.25,-252.0,94.5,117.75,34.5,89.5,-107.75,1
409.75,63.0,-589.0,96.0,153.0,43.25,87.75,-60.5,1
407.5,47.0,-541.75,77.25,166.5,38.0,85.75,10.25,1
463.25,17.5,-480.25,64.75,185.25,47.75,85.25,15.0,1
589.5,23.0,-324.5,45.0,189.75,59.0,81.25,35.5,1
417.5,25.75,-123.25,59.75,196.0,64.75,61.5,37.75,1
203.25,10.25,-324.5,68.25,189.5,71.5,65.75,60.5,1
131.0,16.5,-532.5,58.5,188.25,77.0,60.5,73.5,1
177.75,7.5,-428.25,60.25,180.5,84.75,66.75,60.0,1
210.0,3.75,-291.0,41.0,156.5,72.75,81.5,71.0,1
225.5,-32.5,-304.5,26.0,157.0,81.75,83.75,71.0,1
322.75,-35.75,-309.75,46.25,144.5,83.25,63.5,77.75,1
392.5,-32.75,37.0,40.25,129.75,76.25,61.5,85.75,1
442.5,-59.5,873.75,35.0,119.0,82.25,48.75,88.5,1
403.75,-71.75,1056.75,16.0,88.5,88.25,30.25,90.0,1
416.0,-59.5,752.0,-23.25,79.75,89.75,48.25,94.0,1
337.25,-38.0,-42.75,-25.5,76.25,86.0,32.75,103.25,1
201.25,-47.25,-433.75,-38.0,79.0,88.75,20.75,112.5,1
144.0,-54.75,-431.75,-57.75,93.0,94.0,23.25,99.25,1
108.25,-47.5,-618.5,-60.75,103.75,87.75,19.75,92.0,1
168.25,-56.0,-896.75,-48.5,124.75,84.25,6.75,90.5,1
145.25,-67.75,-785.75,-47.25,157.25,86.75,6.5,91.5,1
35.5,-67.75,-781.5,-70.0,189.0,84.75,14.5,99.75,1
34.25,-64.5,-598.25,-60.25,213.0,77.0,32.75,93.25,1
50.25,-59.0,-349.75,-58.25,230.5,80.25,60.5,77.75,1
43.25,-39.25,-117.25,-69.0,245.75,80.5,88.75,59.25,1
90.0,-17.25,119.5,-60.0,282.5,73.5,108.5,54.75,1
161.5,-1.5,66.0,-81.75,297.25,61.75,128.75,45.25,1
258.0,-4.25,141.5,-90.5,291.5,56.0,127.75,28.5,1
324.75,-25.5,206.0,-57.75,279.0,55.75,126.0,11.5,1
408.5,-16.5,105.25,-35.25,244.0,46.5,132.0,-6.0,1
376.5,-3.5,62.25,-29.75,206.0,31.0,121.0,-27.0,1
332.25,4.0,-49.5,-18.5,168.0,18.5,121.5,-59.75,1
297.25,33.75,-70.75,-5.75,97.5,24.75,127.0,-66.0,1
191.0,50.0,-4.25,-12.25,40.25,21.25,152.5,-70.0,1
143.75,51.25,-49.25,-15.5,-8.25,2.0,170.25,-51.25,1
89.25,65.25,86.75,5.75,-66.5,-15.75,180.5,-58.75,1
102.25,88.5,216.75,16.0,-137.0,-35.25,186.75,-95.0,1
111.25,95.0,31.75,20.25,-188.5,-21.5,184.5,-121.0,1
99.0,97.25,-133.0,33.25,-250.0,-15.75,185.25,-182.25,1
103.0,102.75,-76.5,51.75,-280.0,-40.5,162.75,-215.75,1
59.5,108.5,48.0,71.0,-292.75,-26.75,134.25,-252.75,1
29.75,125.75,342.25,80.0,-309.75,-17.25,99.25,-318.75,1
23.75,129.0,638.0,80.0,-296.75,-23.25,74.0,-354.75,1
10.75,119.75,766.75,79.25,-297.0,-19.25,57.5,-299.75,1
-25.0,92.5,520.5,73.25,-274.75,-15.25,29.5,-211.25,1
-67.0,45.5,139.25,58.75,-246.5,-12.25,14.0,-187.0,1
-100.5,18.5,-46.5,45.0,-237.5,-7.75,11.25,-145.0,1
-129.5,38.75,-38.25,33.25,-204.0,4.25,-16.75,-98.0,1
-147.25,28.25,226.5,37.0,-191.0,6.25,-35.0,-77.75,1
-140.25,16.0,83.5,37.25,-157.75,-1.0,-28.75,-62.0,1
-168.25,17.25,-187.25,18.0,-115.75,-1.0,-29.75,-45.0,1
-146.75,16.5,-225.75,5.75,-89.75,8.25,-45.25,-24.25,1
-117.5,16.0,-253.5,-2.5,-63.25,11.75,-59.75,46.25,1
-158.25,-2.0,-168.25,-5.5,-44.75,-1.25,-69.5,79.5,1
-162.0,-0.25,-168.25,-18.25,-19.5,1.0,-82.25,19.5,1
-232.5,-15.75,-72.25,-27.5,-3.75,4.25,-95.0,-24.0,1
-346.75,-16.25,137.0,-31.75,24.0,-0.5,-111.25,44.75,1
-404.5,-28.75,510.5,-41.25,24.25,11.0,-115.75,57.5,1
-431.0,-39.25,881.75,-57.75,19.0,16.75,-114.5,2.0,1
-427.25,-8.25,792.75,-78.75,38.75,19.5,-96.0,-27.5,1
-310.0,-13.0,295.75,-81.75,38.0,12.75,-92.5,-99.0,1
-195.5,-30.25,-3.5,-82.0,39.25,21.25,-88.75,16.0,1
-161.75,-32.5,71.75,-78.0,28.25,36.75,-93.5,154.0,1
-115.75,-29.75,-219.25,-68.25,19.5,29.0,-101.25,115.0,1
-78.5,-18.25,-509.75,-43.0,5.5,20.75,-82.75,142.75,1
-77.25,-23.5,-583.0,-41.0,0.0,6.75,-69.0,137.0,1
-132.25,-42.75,-673.75,-42.0,-8.5,13.75,-72.0,126.0,1
-138.75,-36.25,-438.5,-22.5,-27.75,9.75,-77.25,129.25,1
-139.75,-34.25,-121.5,-10.5,-47.0,1.0,-68.0,98.5,1
-172.25,-32.5,290.5,-7.5,-48.5,11.25,-74.0,111.0,1
-177.75,-23.25,687.0,-31.5,-26.0,20.0,-74.0,92.5,1
-180.5,-34.25,1079.75,-59.0,-27.25,30.75,-63.0,86.75,1
-146.5,-32.5,767.0,-55.75,-18.5,31.5,-30.0,99.0,1
-127.25,-15.5,-260.0,-46.0,-18.5,36.5,-8.5,105.5,1
-131.25,-24.25,-609.75,-58.0,-36.75,41.5,-11.5,86.75,1
-79.0,-58.75,-898.25,-73.5,-31.25,40.75,-7.25,69.25,1
225.25,-88.0,-1007.25,-77.25,-18.25,36.25,-7.0,60.5,1
889.25,-98.25,-908.25,-70.75,-20.0,29.75,-13.5,28.25,1
819.25,-76.0,-729.5,-74.0,-6.75,31.25,-15.5,19.0,1
-47.5,-72.25,-323.25,-67.0,4.5,20.5,-5.25,10.75,1
-386.0,-77.5,-94.75,-49.75,17.5,15.5,-12.75,0.5,1
-626.5,-76.5,26.25,-65.25,33.75,13.5,11.25,29.75,1
-719.5,-57.75,119.25,-69.75,33.5,17.75,24.0,62.25,1
-599.0,-33.0,425.5,-65.75,46.5,25.75,15.75,55.0,1
-509.0,-23.5,743.5,-57.5,55.25,26.5,18.75,78.0,1
-398.75,0.75,700.25,-70.0,69.75,21.25,12.75,84.5,1
-361.75,-8.0,456.25,-91.25,79.75,23.25,9.75,65.75,1
-140.5,-13.25,311.0,-83.5,86.75,24.75,21.0,88.75,1
10.75,8.0,416.0,-103.5,86.75,22.75,21.0,73.0,1
187.5,0.75,750.5,-95.0,93.5,25.5,9.75,76.0,1
393.5,-5.5,1056.75,-88.5,110.75,19.5,15.0,80.5,1
491.0,9.75,1035.0,-94.25,101.0,25.5,18.5,75.25,1
273.0,6.25,660.75,-85.75,105.75,37.75,13.25,70.5,1
-96.5,-17.0,-98.5,-82.25,102.25,42.0,25.0,47.75,1
-321.25,-43.5,-618.25,-47.25,91.0,35.25,25.25,40.25,1
-517.25,-96.5,-791.5,-31.5,82.0,31.5,28.25,38.25,1
-452.25,-149.25,-919.25,-51.75,79.75,19.0,42.0,41.5,1
-206.5,-154.0,-898.0,-42.0,76.25,15.25,43.5,40.5,1
78.75,-131.75,-857.25,-32.0,61.0,20.25,48.5,18.5,1
804.5,-40.25,-699.75,22.5,54.0,15.5,56.75,18.75,1
1168.75,89.25,-652.75,97.0,44.0,23.5,65.5,43.0,1
876.25,186.25,-363.25,89.25,18.25,10.0,71.0,28.5,1
-64.25,230.5,60.75,55.25,11.5,3.25,66.25,18.25,1
-391.0,211.5,194.5,22.25,-1.5,7.0,68.75,23.75,1
-473.5,193.75,100.0,8.0,-12.5,12.75,72.75,24.0,1
-364.75,174.25,-24.75,25.25,-10.25,18.75,75.0,38.75,1
-211.75,134.75,18.25,33.5,-16.25,9.75,74.0,31.25,1
-173.25,78.25,112.5,38.75,-10.25,13.0,91.0,21.25,1
-515.0,48.5,258.0,37.5,-27.5,2.75,102.75,18.75,1
-542.5,35.5,344.5,30.5,-32.0,-0.25,104.0,21.25,1
-241.0,47.0,529.25,21.5,-22.5,16.5,107.75,25.0,1
-246.0,29.75,686.75,9.5,-31.5,12.0,116.0,28.0,1
-225.0,-25.25,652.0,11.0,-29.25,15.75,134.75,32.25,1
-99.0,-20.25,552.75,-3.75,-11.25,17.0,137.75,32.0,1
340.5,-4.5,178.25,-6.75,-12.0,17.25,147.75,39.25,1
664.0,7.25,-158.5,-0.25,-11.75,17.0,144.25,33.0,1
416.0,-8.0,-335.0,-8.25,18.75,14.0,135.0,34.0,1
630.75,-26.25,-401.5,18.25,45.0,9.5,129.25,35.25,1
898.75,-35.25,-116.25,17.0,71.75,14.75,113.5,40.25,1
274.5,-31.0,436.5,9.0,78.75,32.5,122.25,46.25,1
-184.25,-36.0,426.25,18.75,90.0,27.75,127.25,48.25,1
-293.0,-47.25,-265.25,7.25,98.25,28.25,138.75,27.0,1
-383.0,-50.25,-405.0,20.75,114.0,36.5,124.25,9.25,1
-368.25,-67.25,-123.25,23.5,130.25,48.25,116.25,37.5,1
-330.75,-38.75,258.25,21.75,126.0,42.75,99.25,34.25,1
-139.75,-20.75,166.75,25.0,118.0,25.25,62.75,-3.0,1
-201.5,7.5,-267.0,-6.0,98.5,27.0,49.0,27.25,1
-324.75,34.0,-119.75,-34.5,100.5,16.0,39.75,26.25,1
-60.75,15.0,-84.0,-27.75,74.5,19.25,41.75,-2.75,1
16.75,21.75,-705.75,-36.25,77.0,18.75,17.75,-17.25,1
-16.5,-0.75,-1149.25,-52.5,85.5,25.25,12.0,-86.25,1
73.0,-23.0,-1042.0,-38.75,80.0,31.0,-3.25,-156.0,1
48.75,-12.5,-815.75,-36.0,78.25,22.75,-31.25,-173.75,1
26.0,5.5,-526.0,-33.75,63.0,25.25,-22.0,-66.75,1
-0.5,25.0,-514.25,-31.0,61.25,17.25,-30.25,-33.5,1
8.25,15.75,-539.75,-39.75,48.75,17.25,-54.5,-34.75,1
45.25,-8.0,-384.75,-23.0,52.75,11.75,-50.0,-11.0,1
76.5,-39.5,-222.0,12.0,52.25,4.25,-47.75,-32.25,1
85.5,-40.0,137.25,-21.0,61.5,6.75,-50.25,7.5,1
68.5,-6.75,898.5,-55.75,54.75,22.0,-51.5,1.75,1
110.25,1.75,1658.25,-64.5,33.5,26.5,-43.25,-21.25,1
58.5,-25.0,1775.25,-69.25,26.75,33.75,-30.5,-15.75,1
-127.25,-21.25,1670.5,-51.5,15.0,29.25,-25.25,4.0,1
-150.75,-2.25,1107.5,-62.25,6.25,16.5,-25.5,4.0,1
32.0,-0.5,595.5,-70.25,12.5,25.25,-24.75,0.25,1
349.75,21.0,-287.5,-39.75,6.5,23.75,-38.5,5.5,1
641.5,8.25,-668.0,4.0,-8.5,36.0,-49.5,-2.5,1
512.5,-4.5,-823.0,28.25,0.0,25.75,-40.25,-1.25,1
136.5,6.25,-550.25,34.75,-11.75,23.5,-43.25,-9.0,1
-39.5,32.25,-276.0,54.5,-18.5,32.5,-30.5,4.5,1
55.75,55.0,-355.75,97.5,-15.0,27.5,-10.0,8.0,1
262.0,22.5,-301.75,92.75,-16.75,20.0,-15.5,8.75,1
336.25,5.75,-279.25,82.5,-9.5,25.0,-43.25,6.25,1
350.0,17.75,-175.25,94.5,-19.5,19.25,-62.0,2.5,1
123.5,15.5,-238.0,50.0,-41.0,22.5,-58.0,7.75,1
-167.75,25.25,-299.5,33.25,-42.0,28.25,-61.5,3.75,1
-178.5,46.0,-208.25,48.25,-42.75,21.5,-57.25,-5.75,1
-115.75,31.5,-87.25,35.75,-52.5,22.0,-54.5,-10.75,1
-131.75,27.25,117.25,38.0,-8.25,22.25,-57.5,-4.0,1
-52.5,13.75,100.25,33.25,0.75,27.5,-74.5,-7.25,1
26.25,-20.25,-50.25,-0.25,-13.5,18.75,-64.0,-10.75,1
-91.5,8.25,-59.75,-11.75,4.5,13.75,-40.0,-15.75,1
-188.5,12.5,439.75,-12.75,-8.5,26.75,-31.5,-10.0,1
-318.75,-16.0,896.5,-19.75,-8.75,30.25,-30.5,-1.0,1
-437.75,-10.0,972.75,-21.25,-10.5,29.0,-18.25,-2.5,1
-342.0,-31.25,181.5,-20.25,-13.0,21.5,-13.75,-7.5,1
-121.0,-24.25,-410.25,-30.0,-22.75,33.25,-11.5,7.25,1
119.0,7.75,-798.75,-50.75,-22.25,33.25,-7.5,23.75,1
283.75,35.75,-692.5,-50.0,-33.25,29.25,0.5,31.75,1
377.5,87.5,85.0,-42.0,-43.0,33.0,18.0,36.75,1
446.25,105.5,892.75,-49.75,-18.0,35.0,25.0,30.75,1
346.5,83.5,105.0,-53.75,4.25,49.0,42.0,13.0,1
141.0,62.75,-1134.5,-49.0,20.25,38.75,45.5,-9.25,1
10.75,47.75,-1099.5,-25.25,12.0,33.75,24.25,-25.25,1
-35.5,25.5,-1058.5,-11.25,4.25,34.0,25.75,-35.75,1
-35.5,40.5,-855.75,-6.0,-3.25,15.25,35.75,-34.25,1
-73.5,39.75,-667.5,-6.5,3.25,29.75,33.25,6.0,1
-14.5,21.5,-339.5,-16.25,5.25,29.75,48.0,23.25,1
147.25,10.5,-121.5,-19.5,22.75,6.0,63.5,42.5,1
87.5,-9.75,26.25,-16.25,33.0,7.0,75.25,72.0,1
-109.0,14.5,-17.5,-2.5,16.25,4.5,75.5,60.5,1
-60.75,5.5,78.75,-12.0,32.5,16.75,60.75,77.5,1
-66.5,-39.25,411.25,-45.5,36.5,28.75,58.75,69.5,1
-90.75,-53.5,809.0,-62.25,39.25,28.75,67.0,72.0,1
-103.5,-43.75,1074.75,-71.75,41.5,38.0,59.25,67.25,1
-227.5,-32.75,850.25,-80.25,52.25,31.5,70.75,54.75,1
-231.5,-33.0,101.5,-76.25,57.25,30.25,69.25,81.5,1
-265.75,-33.0,-186.5,-75.0,44.75,19.0,41.5,78.75,1
-208.75,-47.75,-61.25,-57.75,48.75,9.0,30.75,86.0,1
-211.0,-60.75,460.75,-65.5,43.5,11.75,5.5,95.75,1
-220.5,-58.0,429.25,-61.75,48.75,22.25,-6.75,103.25,1
-146.0,-49.75,250.5,-50.75,47.0,34.0,-34.0,101.0,1
-96.0,-46.0,64.0,-58.5,52.5,36.75,-46.25,90.75,1
-35.25,-22.5,-20.5,-57.5,61.0,38.75,-66.5,88.0,1
-26.0,-5.5,-50.5,-47.0,53.5,31.25,-79.5,89.25,1
57.75,-12.25,-239.5,-24.5,61.0,34.0,-86.0,93.25,1
348.75,-39.5,-257.5,-28.25,48.25,28.0,-84.0,77.25,1
764.75,-58.25,17.25,-24.25,47.75,23.5,-36.25,68.75,1
528.5,-36.75,761.5,-33.75,51.25,36.0,-20.5,73.75,1
-75.0,-39.75,880.75,-28.25,60.25,27.25,6.0,75.0,1
-307.25,-68.25,847.75,12.25,74.25,34.0,21.25,78.0,1
-530.25,-66.0,-98.75,18.5,77.75,42.75,24.0,82.75,1
-554.75,-42.25,-790.5,18.75,84.75,39.25,22.5,73.75,1
-498.5,-28.75,-721.25,-17.0,83.0,36.25,9.0,65.25,1
-379.5,-14.25,-918.0,-31.5,97.75,31.0,14.25,70.25,1
-308.75,-9.75,-682.25,-57.0,86.0,29.75,25.25,72.0,1
-327.5,-21.75,-669.0,-75.0,85.5,26.25,54.75,70.0,1
-215.75,-12.5,-561.75,-71.0,101.5,23.5,99.0,61.5,1
-87.5,-14.5,-593.25,-55.75,85.75,23.75,143.0,48.5,1
85.5,-25.0,-403.0,-35.75,81.5,12.0,162.5,48.75,1
29.0,-27.5,-334.0,-46.75,75.25,9.75,183.5,44.0,1
-7.5,-17.5,55.5,-34.25,62.75,13.25,180.5,28.75,1
-14.75,-10.0,422.0,-40.25,46.5,7.75,163.5,24.0,1
-99.0,-18.5,464.5,-45.25,22.5,16.5,147.5,10.0,1
1.0,-24.0,703.0,-53.75,5.75,16.0,129.5,3.5,1
47.5,-26.5,838.25,-54.0,1.5,13.0,125.75,-4.75,1
-11.5,-16.5,635.0,-31.5,1.75,12.75,139.5,-14.0,1
-42.75,-7.0,242.5,-12.25,4.0,13.25,230.75,-20.0,1
-34.25,1.25,-301.75,-16.75,-3.75,15.25,366.25,-27.25,1
-154.5,29.5,-337.0,-22.0,-3.75,21.25,498.0,-40.75,1
-141.75,29.0,-77.0,5.25,-11.0,16.0,617.0,-44.75,1
-21.5,45.75,-89.25,4.0,-22.75,7.25,679.25,-32.25,1
-104.25,55.5,-38.0,35.25,-18.25,17.25,653.5,-38.75,1
-103.0,64.5,109.75,76.5,-11.75,18.5,632.0,-36.75,1
-118.25,79.0,-50.25,53.75,-7.75,3.0,557.75,-43.75,1
-60.75,64.5,-190.75,25.5,-19.25,7.0,376.0,-55.5,1
60.5,86.0,-208.25,34.25,-4.75,-0.5,211.75,-49.75,1
118.75,81.75,-212.0,48.75,20.0,-1.25,66.25,-47.5,1
177.5,88.5,158.25,49.0,25.25,-6.25,-80.25,-39.5,1
174.75,90.0,263.5,38.5,21.0,-11.0,-267.5,-43.25,1
135.5,67.0,-218.75,9.5,9.25,-4.75,-476.75,-43.25,1
326.5,52.0,-596.75,20.0,-4.5,-11.25,-698.25,-10.5,1
611.25,39.25,-473.5,28.5,-24.0,3.25,-840.25,32.0,1
393.0,25.25,-97.5,29.5,-41.5,15.0,-882.25,27.75,1
123.5,12.0,197.5,18.5,-50.75,10.5,-899.0,29.5,1
143.5,14.0,347.25,7.0,-67.0,18.0,-856.0,-25.75,1
45.5,7.25,375.25,-13.0,-85.0,18.0,-761.75,-75.5,1
110.25,17.25,402.0,-37.0,-81.75,9.5,-601.0,-79.5,1
266.5,42.0,387.75,-17.0,-84.25,14.25,-390.5,-147.5,1
275.5,72.0,242.25,-6.0,-85.75,12.75,-201.5,-162.25,1
157.75,88.25,231.75,0.75,-73.0,19.0,-79.75,-135.25,1
-53.0,85.5,148.5,-2.75,-66.75,21.75,-19.25,-133.25,1
2.25,78.5,-75.0,-8.25,-57.5,34.25,-21.5,-132.0,1
85.0,65.25,-199.0,-1.5,-42.5,46.75,-62.75,-107.25,1
89.75,52.25,-218.75,-10.0,-45.75,26.5,-141.75,-141.75,1
139.25,40.25,-117.25,-14.25,-35.75,30.75,-225.25,-179.75,1
54.5,39.75,-205.25,-13.25,-21.0,18.5,-273.0,-52.25,1
-8.0,35.5,-292.25,-0.75,-18.0,18.5,-275.25,0.75,1
-20.5,23.5,-213.0,28.75,-15.25,7.0,-238.25,-49.75,1
20.75,2.25,-45.75,45.5,-24.5,8.25,-183.75,-32.75,1
114.0,-11.25,87.75,26.75,-13.0,45.5,-157.5,-84.75,1
170.0,-43.75,80.5,23.25,-6.5,32.0,-155.5,-99.5,1
111.75,-66.0,81.75,43.0,-10.5,56.75,-121.75,-9.5,1
8.0,-29.25,37.5,46.0,1.75,48.75,-47.5,44.0,1
23.25,13.5,44.5,28.75,8.5,43.0,72.5,51.25,1
70.75,43.0,59.75,23.5,-2.25,51.25,239.5,73.75,1
128.25,26.5,71.25,24.25,-13.25,36.25,428.75,82.0,1
226.0,-6.0,136.75,14.0,6.5,39.0,605.75,82.5,1
154.25,-33.5,88.75,4.25,13.25,39.75,748.5,87.75,1
-108.25,-72.0,6.5,-28.25,27.5,36.75,804.5,88.0,1
-240.0,-80.5,-14.5,-43.0,36.0,26.0,810.0,98.25,1
-261.25,-97.25,-33.5,-40.25,20.25,29.75,784.75,97.25,1
-310.5,-101.75,-61.0,-47.0,18.25,22.5,745.25,97.75,1
-263.0,-90.25,-27.5,-35.25,11.25,22.5,702.0,85.5,1
140.75,-78.75,9.75,-35.25,19.0,22.0,655.75,83.0,1
887.5,-49.75,166.75,-24.0,31.5,25.75,649.5,85.25,1
883.75,-10.75,432.0,-9.25,20.25,22.5,619.75,61.25,1
210.0,1.75,709.25,1.25,1.5,16.0,583.5,50.25,1
-196.0,0.75,558.5,18.75,28.5,36.25,553.0,46.0,1
-695.0,11.0,-194.0,23.75,38.25,31.75,512.0,36.75,1
-903.0,-0.5,-660.5,25.75,27.75,24.75,474.25,28.0,1
-709.25,-12.0,-772.5,12.0,25.75,19.5,422.25,8.25,1
-720.75,-17.75,-419.25,-2.0,7.75,28.0,375.25,-17.25,1
-909.75,-36.75,140.0,2.75,12.25,33.0,318.25,-40.5,1
-1088.25,-70.0,500.0,23.5,61.25,38.25,263.0,-74.75,1
-706.5,-102.5,416.75,71.75,125.75,59.0,193.75,-133.0,1
-629.5,-143.5,-244.5,144.25,212.0,85.0,151.0,-175.5,1
-875.0,-182.0,-266.5,227.5,347.5,114.5,110.75,-228.0,1
-804.75,-249.5,-90.75,340.75,505.5,146.25,90.75,-305.0,1
-781.75,-349.0,-483.5,485.25,617.75,182.75,64.75,-362.5,1
-644.75,-399.75,-634.5,556.75,545.5,171.0,-3.0,-343.0,1
-467.0,-342.75,-496.5,499.0,453.25,137.75,-66.25,-289.25,1
-304.0,-253.75,-243.5,425.5,341.25,110.0,-110.0,-221.5,1
-56.75,-207.0,-34.25,352.0,130.5,71.25,-139.75,-150.25,1
233.0,-142.0,59.25,218.0,-33.75,42.0,-166.75,-93.5,1
315.0,-73.5,367.5,56.75,-189.5,9.5,-178.75,-16.0,1
284.25,-31.25,569.0,-48.25,-256.5,-7.5,-171.0,63.75,1
197.75,-13.75,417.75,-56.75,-260.0,-3.0,-167.75,90.5,1
158.0,29.25,243.75,-157.75,-355.5,-38.25,-151.25,140.75,1
465.5,100.75,235.75,-303.5,-425.75,-59.0,-145.75,187.75,1
867.5,137.75,136.0,-346.0,-428.5,-59.5,-154.5,190.25,1
961.75,151.75,-103.0,-383.75,-416.5,-63.0,-161.0,214.75,1
675.25,168.5,-348.25,-418.0,-421.25,-68.25,-182.25,228.5,1
589.75,215.5,-321.5,-504.25,-454.75,-71.75,-206.5,263.75,1
640.75,260.75,-145.25,-580.5,-480.25,-95.25,-228.25,295.75,1
697.5,328.0,-75.25,-668.75,-524.75,-119.75,-261.75,325.75,1
984.0,381.5,-15.0,-751.25,-594.75,-121.75,-281.75,368.0,1
1009.5,406.75,71.5,-764.75,-615.5,-122.75,-291.5,412.75,1
823.0,434.25,152.25,-705.5,-569.75,-136.75,-296.25,423.0,1
601.75,403.75,32.25,-642.0,-496.75,-126.5,-305.75,368.75,1
258.75,344.0,25.75,-595.25,-404.25,-107.25,-313.75,347.5,1
5.5,327.0,17.0,-566.25,-342.0,-94.5,-289.5,334.75,1
147.5,309.75,-7.0,-530.0,-257.75,-80.0,-269.0,305.75,1
300.25,280.75,112.75,-461.0,-164.0,-71.0,-254.0,257.0,1
158.0,205.0,13.5,-366.0,-43.25,-46.25,-229.5,203.25,1
72.0,130.75,-186.75,-299.25,43.75,-28.5,-206.25,164.0,1
40.5,92.5,-287.25,-228.0,132.75,-13.25,-187.0,122.25,1
-26.0,59.5,-271.5,-158.75,209.75,9.0,-166.25,88.75,1
-17.75,30.25,-222.25,-71.25,271.25,26.75,-136.5,58.5,1
2.0,-0.75,-224.0,-31.0,325.0,44.0,-121.0,56.0,1
73.75,-2.75,-234.75,-14.25,377.0,43.75,-96.25,52.25,1
27.0,-62.25,-71.25,-7.75,431.75,44.0,-81.0,60.25,1
-72.25,-156.0,30.75,-16.75,495.75,52.0,-66.0,75.25,1
-106.25,-182.5,7.75,0.75,540.75,62.25,-68.25,87.75,1
-227.0,-203.25,83.5,15.25,574.0,70.0,-77.0,87.0,1
-366.5,-227.25,220.5,34.5,610.75,72.25,-68.5,102.25,1
-413.75,-231.5,236.25,56.75,608.75,76.0,-76.5,107.75,1
-435.5,-224.0,356.25,83.0,586.0,75.5,-69.25,82.5,1
-460.75,-223.0,348.25,97.5,574.0,80.0,-63.75,70.5,1
-607.5,-242.75,117.75,120.25,527.25,84.25,-49.5,42.0,1
-697.25,-229.25,34.25,151.5,448.0,63.25,-43.5,-1.0,1
-736.75,-220.0,90.5,178.25,358.0,62.25,-35.5,-42.25,1
-797.0,-203.25,325.25,203.0,269.5,62.0,-15.0,-60.75,1
-653.25,-158.0,454.25,238.5,184.0,34.75,-6.75,-90.0,1
-306.0,-134.25,529.0,277.0,92.25,27.0,10.75,-132.5,1
-318.25,-89.25,355.0,273.75,-5.75,0.25,14.0,-160.75,1
-479.5,-47.75,231.0,291.0,-79.25,-17.5,20.25,-188.25,1
-433.0,-17.25,115.25,308.25,-154.75,-25.25,21.5,-210.75,1
-706.5,20.0,337.25,310.5,-216.25,-49.25,31.75,-231.25,1
-691.25,61.0,481.75,319.5,-236.25,-49.5,43.25,-231.0,1
-582.5,80.5,216.0,322.0,-247.25,-60.75,25.5,-234.25,1
-403.0,100.75,458.5,295.25,-215.0,-56.75,26.75,-231.75,1
-56.75,116.5,305.5,273.5,-182.5,-53.5,28.75,-216.75,1
83.5,87.75,74.75,256.75,-131.25,-57.75,19.5,-195.25,1
86.0,62.75,-418.75,214.25,-56.0,-26.25,5.5,-161.25,1
-23.0,68.5,-933.75,191.25,-1.5,-8.75,-2.0,-139.0,1
77.25,60.75,-695.25,165.25,60.75,10.0,-15.75,-89.75,1
73.0,38.0,-574.5,144.75,130.75,43.25,-28.5,-55.75,1
81.75,29.0,-485.75,135.5,194.5,69.25,-25.5,-47.0,1
153.75,3.0,-483.5,135.25,230.0,72.75,-15.25,18.0,1
300.5,-11.5,-427.75,136.5,239.25,59.0,-9.5,19.5,1
416.75,-42.25,-361.75,101.5,242.75,51.75,-6.75,14.75,1
297.5,-48.25,-400.25,105.75,238.5,76.75,-15.25,52.25,1
261.75,-24.25,-318.5,96.0,238.5,82.5,-1.25,32.25,1
289.25,-42.75,-189.0,52.0,246.5,89.75,5.75,56.0,1
278.75,-60.75,-144.0,21.5,242.75,106.25,13.25,81.5,1
257.0,-58.25,-153.75,-12.5,233.5,97.25,29.75,77.5,1
261.25,-52.75,62.75,-16.5,223.0,100.75,26.75,89.25,1
191.75,-46.5,313.75,-33.75,229.25,96.75,29.0,89.75,1
187.5,-50.0,406.25,-39.75,208.0,100.0,21.0,81.0,1
301.75,-53.0,237.5,-39.5,201.0,88.75,31.25,70.0,1
357.0,-48.5,172.0,-52.75,201.0,85.0,46.0,81.25,1
330.25,-53.25,285.75,-63.75,183.5,90.25,19.25,84.25,1
379.0,-18.0,254.5,-98.5,185.0,80.25,12.0,69.5,1
338.5,7.0,404.25,-117.75,183.25,80.5,22.5,75.75,1
209.0,-7.75,681.25,-117.25,170.25,66.75,41.0,63.25,1
