0,1,2,3,4,5,6,7,label
874.5,27.75,25.5,-84.0,306.75,15.75,-4.25,-4.5,2
346.75,24.25,-4.25,-110.0,284.0,26.25,-14.75,13.25,2
-154.5,-5.0,1.5,-111.25,246.75,16.25,-21.75,5.0,2
-252.0,-32.0,-3.0,-115.75,248.5,-3.0,-22.0,-0.5,2
-424.5,-23.75,-18.0,-119.0,243.75,-13.5,-23.0,-0.5,2
-468.75,-20.5,-10.25,-122.5,258.5,-5.25,-39.75,-16.25,2
-608.75,-40.75,-11.25,-119.25,281.5,-1.25,-41.0,-16.75,2
-836.25,-71.25,-12.0,-118.0,298.25,6.75,-36.75,-13.25,2
-1184.0,-104.25,-15.5,-117.0,290.25,5.75,-36.0,-15.25,2
-1145.25,-107.25,-15.5,-113.0,277.0,9.5,-43.75,-3.75,2
-805.5,-95.0,-22.75,-110.0,277.0,25.25,-34.75,9.75,2
-324.25,-54.25,-25.5,-102.25,266.0,18.75,-19.25,18.5,2
310.5,-47.0,-32.5,-86.0,269.25,7.25,-13.75,16.0,2
490.75,-93.0,-30.25,-89.5,263.25,7.75,-10.5,6.5,2
338.25,-107.0,-24.5,-74.75,253.75,12.5,-2.25,1.0,2
21.0,-109.0,-30.25,-66.5,251.5,18.5,13.0,32.75,2
-152.75,-75.75,-16.75,-68.75,242.0,24.25,9.5,98.0,2
-631.5,-64.5,-13.5,-53.25,232.5,27.0,23.5,125.0,2
-894.0,-79.25,-13.5,-45.5,223.25,29.25,27.75,91.5,2
-230.5,-64.25,-9.0,-32.5,231.75,39.0,41.75,70.5,2
276.5,-58.5,-8.75,-29.25,227.0,36.75,56.0,46.5,2
503.5,-60.75,-10.5,-16.25,209.0,27.0,55.75,10.0,2
597.25,-73.75,-6.25,-14.5,200.25,45.75,75.5,-15.75,2
453.5,-91.75,-0.75,-22.0,189.5,54.5,73.0,-67.5,2
303.25,-87.0,2.25,-23.0,177.0,66.5,73.25,-22.0,2
181.0,-41.75,-1.5,-39.75,167.5,84.0,64.25,128.5,2
-30.25,-2.5,3.0,-26.0,147.75,73.5,58.0,125.0,2
-129.75,52.25,-3.0,-6.75,149.0,72.5,59.25,47.5,2
-45.25,112.75,-3.75,18.75,171.0,80.75,65.25,55.25,2
-215.5,124.75,21.0,60.25,191.75,87.25,85.0,-5.0,2
-607.75,114.0,38.75,93.75,247.75,99.25,92.5,-52.75,2
-684.25,71.75,68.0,134.0,311.5,134.5,107.75,-93.25,2
-574.0,2.0,83.75,163.25,361.0,156.0,108.25,-140.0,2
-494.5,-66.25,95.0,198.0,402.25,167.5,96.0,-135.25,2
-247.25,-93.5,109.75,220.0,394.25,179.25,92.25,-100.5,2
-70.0,-78.25,98.0,206.25,325.75,162.75,72.5,-20.5,2
35.5,-49.0,71.0,166.75,256.5,140.75,51.25,38.0,2
75.5,-30.0,22.25,90.0,138.0,89.0,24.25,95.5,2
77.75,-2.5,-18.5,6.25,-16.0,34.25,-15.0,146.0,2
198.25,27.75,-50.5,-51.75,-101.0,18.5,-30.5,133.5,2
365.5,53.0,-74.25,-91.75,-171.25,6.5,-53.75,142.5,2
578.25,69.75,-89.5,-155.5,-244.75,-6.75,-80.0,140.25,2
697.0,82.75,-114.0,-212.25,-332.5,-44.5,-98.0,141.75,2
686.75,113.5,-155.75,-272.5,-403.0,-63.25,-114.75,224.0,2
700.5,100.0,-160.0,-279.25,-384.25,-72.5,-127.0,328.25,2
641.0,98.5,-155.0,-279.75,-362.0,-91.5,-133.75,345.5,2
481.0,98.0,-139.0,-270.25,-303.0,-68.75,-114.75,302.0,2
226.0,58.25,-105.25,-227.75,-253.25,-57.5,-110.0,262.25,2
-6.25,23.5,-100.75,-216.75,-209.5,-53.25,-105.0,224.5,2
-92.5,6.75,-75.25,-195.75,-149.75,-42.25,-87.75,199.5,2
-96.5,21.0,-59.25,-176.5,-107.5,-25.5,-77.25,152.75,2
-108.0,11.5,-41.75,-154.75,-52.5,21.75,-68.0,138.75,2
-108.0,-9.5,-23.5,-131.75,-22.5,21.75,-50.25,106.75,2
-192.0,-1.25,-11.0,-103.0,25.75,16.75,-38.5,84.75,2
-217.75,39.25,1.75,-83.5,53.25,34.75,-36.5,44.75,2
-91.0,54.0,11.75,-67.0,83.25,23.75,-40.75,-2.5,2
-17.0,26.5,31.0,-47.5,92.75,33.0,-42.75,3.0,2
66.5,-2.5,34.0,-42.5,100.5,30.0,-33.0,-25.5,2
145.0,-13.25,30.25,-28.75,108.25,24.25,-20.25,-32.5,2
179.0,-22.25,38.75,-1.0,74.5,31.5,-0.75,-45.75,2
181.75,-21.5,31.25,19.5,76.75,37.5,5.75,-58.75,2
142.5,-6.0,36.0,15.75,59.5,39.5,10.0,-58.5,2
70.5,-3.25,42.5,31.0,45.5,23.75,20.25,-65.25,2
-19.75,-9.25,47.75,47.5,50.75,26.75,19.25,-82.0,2
-146.5,3.75,56.0,46.5,36.0,17.5,13.25,-83.75,2
-256.0,16.0,52.5,43.5,34.0,13.75,9.0,-91.75,2
-315.0,18.0,53.25,50.75,38.75,6.0,17.0,-93.75,2
-391.75,9.25,59.5,57.75,45.5,4.5,18.5,-75.75,2
-430.5,-0.5,59.75,51.0,45.25,2.25,14.0,-105.0,2
-540.75,-5.5,51.25,51.5,33.75,-17.0,27.0,-118.75,2
-712.75,-9.75,52.25,52.5,13.5,-21.0,28.75,-129.0,2
-691.0,-22.0,45.5,57.75,1.75,-24.25,32.75,-134.5,2
-608.75,-65.5,47.5,74.0,-28.0,-15.5,32.75,-137.25,2
-281.0,-67.75,35.0,75.25,-59.5,-15.0,21.25,-145.0,2
170.5,-59.25,-0.25,71.75,-83.75,-17.5,23.5,-148.0,2
419.75,-73.5,-6.0,69.25,-116.75,-15.25,18.25,-175.0,2
632.5,-47.0,-4.75,69.25,-139.75,-20.75,17.25,-170.75,2
668.5,-18.75,-14.5,62.0,-152.0,-27.25,14.5,-146.25,2
619.25,-20.0,-29.75,73.75,-167.5,-40.75,14.5,-116.5,2
572.25,-0.75,-29.0,77.75,-176.25,-27.0,28.25,-121.75,2
438.75,28.75,-36.5,70.5,-177.0,-14.0,24.75,-137.5,2
265.75,37.25,-26.5,70.0,-186.0,0.5,16.0,-140.5,2
81.75,36.25,-28.5,67.0,-194.25,15.25,27.25,-166.5,2
-88.5,13.0,-39.5,56.5,-200.5,11.25,43.25,-179.75,2
-234.25,13.75,-23.0,47.25,-193.5,3.25,37.5,-207.0,2
-386.25,28.25,-23.75,39.25,-188.25,13.0,26.0,-204.0,2
-480.25,42.25,-29.0,27.75,-188.0,26.75,18.25,-124.5,2
-243.5,60.25,-43.75,30.5,-184.0,23.75,17.0,-107.5,2
27.75,69.0,-36.25,24.0,-168.5,26.75,4.5,-114.0,2
136.25,68.75,-40.0,17.75,-144.75,16.75,1.75,-95.5,2
181.5,56.75,-48.75,26.0,-147.5,14.5,12.0,-85.25,2
45.5,43.5,-46.5,19.5,-139.5,31.5,5.0,-47.5,2
12.25,26.25,-41.75,20.25,-127.0,26.5,25.75,-63.0,2
164.75,58.75,-36.25,26.0,-131.25,10.25,19.0,-67.5,2
167.75,61.75,-35.75,24.5,-121.0,10.75,7.5,-61.5,2
50.0,32.0,-44.0,31.25,-98.25,-2.75,22.5,-79.75,2
-55.5,31.25,-56.25,32.75,-79.0,-3.25,17.25,-51.5,2
-148.0,20.25,-58.75,29.75,-61.0,68.0,23.0,-47.75,2
-217.25,20.25,-58.0,28.0,-51.75,99.25,30.25,-46.0,2
-154.25,28.0,-47.25,34.5,-49.25,84.0,46.75,-20.0,2
14.25,24.75,-50.25,25.25,-47.0,76.75,40.75,-17.5,2
112.5,16.25,-61.5,2.25,-39.0,47.75,32.0,-29.5,2
115.25,16.0,-57.75,-7.75,-26.0,20.0,36.0,-29.0,2
97.25,2.0,-54.5,-21.25,-27.75,27.5,31.5,-33.5,2
42.5,-6.0,-48.0,-28.0,-29.75,61.75,32.75,-27.75,2
-168.5,23.25,-51.5,-32.5,-25.75,69.0,19.25,7.75,2
-613.0,19.0,-42.5,-37.75,-18.0,68.0,17.75,23.5,2
-463.5,-1.5,-59.25,-45.25,-3.5,60.25,20.75,22.75,2
89.25,-23.5,-57.0,-37.0,-4.0,62.75,8.5,13.75,2
200.25,-42.0,-64.75,-40.5,6.0,65.75,12.25,12.75,2
407.0,-35.5,-74.75,-48.25,14.0,56.25,15.75,35.75,2
543.75,-33.0,-60.0,-49.0,25.75,61.0,20.25,41.75,2
485.25,-19.25,-74.5,-56.5,33.0,60.25,19.5,35.75,2
414.75,-3.75,-63.25,-41.5,34.0,66.5,25.25,26.75,2
312.0,2.75,-59.25,-34.75,42.5,66.5,16.25,50.75,2
252.25,16.75,-66.75,-46.5,35.75,60.75,18.0,66.5,2
211.0,37.25,-60.0,-41.25,53.75,69.0,21.25,74.5,2
189.5,46.0,-58.75,-33.75,56.5,60.5,15.75,81.0,2
81.75,40.5,-48.5,-39.25,66.25,51.0,19.75,81.25,2
16.25,54.75,-48.75,-17.75,75.25,45.0,6.5,103.75,2
-6.5,32.5,-47.5,-15.5,64.5,37.0,14.0,101.25,2
-31.5,16.5,-47.75,-17.25,64.75,47.25,18.75,105.75,2
-116.25,10.25,-42.25,-2.25,41.0,43.5,16.0,128.25,2
-153.5,13.75,-38.75,-9.5,29.25,30.5,15.5,123.5,2
-0.5,17.75,-43.75,-3.25,27.0,21.25,14.75,123.5,2
145.5,3.25,-39.25,-1.75,12.0,11.25,25.25,135.75,2
150.5,-3.75,-39.5,-3.0,13.5,16.75,25.0,131.75,2
-6.5,-5.75,-34.5,-13.0,11.0,16.25,30.0,133.5,2
-141.25,11.0,-32.0,-4.0,-9.0,21.5,32.25,134.25,2
-174.75,19.5,-36.25,-4.75,-10.25,13.5,37.25,127.0,2
-222.0,16.75,-23.25,-6.0,-3.75,1.5,45.25,131.25,2
-189.75,29.0,-14.5,8.25,2.0,18.75,54.75,134.0,2
-84.0,21.5,-20.25,12.0,-2.25,9.0,61.25,119.75,2
8.0,11.75,-22.0,13.75,-12.75,11.0,56.0,125.75,2
-259.25,13.75,-16.0,2.25,-32.0,25.75,52.75,138.5,2
-690.0,-1.0,-22.25,14.75,-68.75,21.0,50.75,131.25,2
-355.75,8.0,-22.5,11.75,-82.75,34.75,45.75,137.75,2
199.75,15.75,-7.75,-6.25,-100.0,38.0,56.5,139.5,2
579.5,5.0,-13.5,-0.5,-112.5,49.25,64.25,132.5,2
828.75,15.5,-14.0,16.75,-121.0,57.75,56.5,125.5,2
749.5,19.0,2.0,1.75,-125.5,44.25,66.5,130.5,2
666.25,14.5,13.5,-3.25,-111.5,19.0,63.75,145.5,2
405.75,16.5,31.75,12.75,-110.0,-53.75,54.25,162.25,2
198.25,23.0,40.25,-0.75,-98.25,-99.25,66.5,188.25,2
35.0,19.0,49.75,-10.75,-75.25,-86.5,60.25,212.75,2
-178.5,2.25,58.5,-26.25,-53.75,-79.0,54.0,231.5,2
-320.0,4.0,71.0,-45.75,-32.5,-20.5,39.25,255.0,2
-445.25,-13.5,83.25,-77.0,4.75,5.5,34.25,286.5,2
-520.5,-36.0,96.5,-108.75,42.5,2.0,29.5,300.25,2
-579.5,-39.25,119.25,-128.25,87.25,9.75,16.0,328.25,2
-610.0,-56.0,133.5,-159.5,133.0,6.75,13.25,358.0,2
-673.0,-87.0,150.0,-182.5,162.0,23.25,4.5,387.5,2
-661.75,-114.5,182.0,-193.5,185.25,21.0,6.25,397.0,2
-598.25,-160.0,198.0,-183.25,203.5,37.0,17.5,369.75,2
-641.5,-196.0,214.5,-176.75,205.0,26.0,28.0,353.0,2
-695.75,-204.25,232.25,-163.5,160.0,15.5,35.75,304.75,2
-719.0,-186.75,234.0,-143.0,109.5,27.75,40.0,267.0,2
-698.0,-144.0,241.75,-123.0,18.25,23.25,49.25,216.5,2
-605.75,-102.75,250.0,-96.25,-94.75,25.75,58.25,160.5,2
-541.25,-89.25,244.25,-73.25,-218.75,8.75,75.0,86.75,2
-421.75,-63.75,233.25,-28.5,-366.75,2.75,86.25,6.5,2
-276.5,-20.0,227.0,2.25,-496.25,-25.5,86.0,-57.25,2
-184.25,31.25,205.5,46.0,-586.75,-83.75,108.25,-123.0,2
-32.25,89.75,179.25,81.0,-581.5,-117.0,116.25,-140.5,2
131.0,138.75,135.0,83.0,-528.25,-122.75,110.25,-174.0,2
282.5,136.75,73.0,87.75,-439.25,-109.5,108.0,-189.75,2
363.5,136.0,30.25,73.0,-337.0,-77.5,92.0,-173.25,2
437.5,119.5,-13.25,69.25,-280.75,-39.25,82.75,-152.75,2
469.25,84.5,-46.25,45.25,-198.25,-17.5,79.5,-135.5,2
434.25,69.0,-67.75,33.5,-133.0,4.0,60.25,-107.75,2
369.0,72.0,-92.25,32.5,-90.75,19.25,52.75,-57.5,2
294.25,71.0,-131.5,18.5,-37.25,38.5,42.25,-75.75,2
253.75,60.0,-150.0,13.0,-2.75,55.75,21.5,-101.25,2
216.0,48.75,-151.25,7.75,24.25,45.0,25.0,-101.5,2
233.5,8.0,-158.0,11.25,49.0,65.75,15.75,-125.0,2
245.25,17.75,-157.25,7.25,73.75,73.75,11.25,-139.0,2
239.25,15.5,-157.75,5.0,99.25,76.0,-0.5,-143.75,2
215.0,-2.5,-152.5,-5.5,118.75,70.0,6.0,-169.0,2
163.75,-16.75,-159.0,-1.5,131.25,58.5,5.5,-152.5,2
94.5,-34.25,-157.0,-9.0,142.0,66.0,-0.5,-111.25,2
-23.0,-26.25,-146.5,-5.25,155.5,50.75,-4.75,-127.75,2
-132.25,-29.5,-151.25,-11.25,165.0,54.75,-18.0,-119.25,2
-142.25,-44.75,-143.25,-16.0,182.75,47.0,-7.75,-113.25,2
-72.75,-31.0,-153.75,-19.25,188.75,42.0,-11.5,-124.75,2
13.5,-38.25,-149.75,-30.0,195.75,37.0,-9.75,-108.75,2
74.75,-60.5,-137.75,-17.25,191.5,39.5,-16.5,-100.25,2
121.75,-28.0,-132.75,-26.25,195.75,45.0,-16.5,-96.75,2
135.0,-35.25,-129.0,-23.25,185.5,41.25,-8.0,-101.75,2
135.0,-56.75,-131.5,-28.75,186.0,30.75,-10.0,-110.0,2
102.75,-25.25,-114.25,-23.5,199.25,24.75,-6.25,-109.0,2
87.75,20.5,-107.25,-22.0,191.0,38.5,-10.0,-97.5,2
135.75,38.25,-112.5,-29.25,191.75,36.5,-6.5,-96.0,2
206.0,1.0,-99.75,-20.75,187.0,42.5,-6.5,-89.25,2
238.0,-17.75,-97.25,-16.5,200.0,32.5,-5.5,-87.75,2
220.75,-22.0,-88.25,-14.25,201.75,42.0,4.5,-90.5,2
200.25,-18.75,-75.25,-18.0,202.75,45.5,5.5,-81.75,2
222.75,9.0,-78.75,-18.75,198.75,26.0,-19.75,-84.0,2
269.25,43.25,-76.75,-24.25,181.0,40.5,-22.75,-73.5,2
311.25,33.75,-68.5,-18.5,174.75,45.75,-11.75,-70.75,2
295.75,22.5,-59.5,-17.0,159.75,52.25,-16.25,-67.0,2
262.5,39.0,-56.0,-19.0,137.75,56.25,-4.0,-77.25,2
219.0,44.0,-45.25,-19.25,131.5,51.25,-13.75,-64.25,2
114.25,27.25,-48.75,-28.5,137.5,32.0,-12.5,-56.5,2
17.0,29.0,-48.25,-15.5,134.5,27.0,-0.5,-55.5,2
-95.5,52.0,-38.5,-19.5,136.25,28.0,6.25,-51.25,2
-234.5,-4.75,-39.5,-27.0,130.0,23.5,14.5,-50.0,2
-357.0,-34.5,-23.25,-33.75,123.75,17.5,8.25,-38.75,2
-433.25,-55.0,-8.5,-25.5,125.25,33.0,17.0,-41.0,2
-524.0,-76.0,-2.5,-13.75,110.25,64.0,12.75,-37.5,2
-517.0,-87.75,-3.5,-27.0,118.25,55.0,-1.5,-52.25,2
-392.0,-101.5,-6.5,-15.25,133.0,52.25,8.5,-58.25,2
-295.75,-68.25,1.75,-12.0,126.5,49.0,20.75,-53.5,2
-202.25,-63.0,17.5,-18.75,122.5,32.75,21.5,-61.5,2
-92.5,-50.75,16.0,-5.75,120.5,45.5,17.75,-55.5,2
16.25,-30.75,7.25,-11.5,121.5,60.0,22.75,-57.5,2
52.25,50.75,22.0,-6.25,130.25,53.75,21.0,-45.5,2
14.25,90.5,17.5,-5.0,129.25,48.0,10.75,-3.75,2
-46.25,50.75,24.0,-22.25,142.75,37.5,19.25,-16.0,2
-74.25,54.25,18.25,-12.25,142.75,38.5,30.0,-35.5,2
-17.0,76.5,10.25,-14.25,144.5,45.5,37.75,-14.25,2
65.75,83.25,31.75,-14.75,182.5,49.25,46.5,-12.5,2
227.0,89.25,36.5,-14.75,239.25,63.0,49.75,-7.25,2
400.25,101.5,34.5,-18.5,332.0,55.0,52.25,-10.5,2
526.25,86.25,35.0,-7.75,416.25,54.0,45.5,-10.5,2
559.0,86.0,31.5,-5.25,456.25,59.75,54.0,4.25,2
448.75,74.0,28.5,-16.5,482.25,52.25,50.25,-1.75,2
313.0,5.75,27.75,-4.0,474.75,68.25,38.0,1.5,2
166.75,-81.0,29.5,-2.0,441.25,75.25,61.0,9.25,2
32.0,-95.5,29.0,-12.25,405.25,80.25,54.0,12.5,2
-56.25,-73.25,14.0,-28.25,383.75,59.75,43.25,19.75,2
-105.5,-64.75,9.75,-31.75,419.5,56.75,38.5,15.75,2
-181.25,-75.0,-1.75,-24.0,459.0,58.25,22.0,24.0,2
-217.75,-42.5,-3.25,-33.75,457.75,54.25,14.5,31.75,2
-197.25,43.5,-3.25,-32.5,432.5,57.75,9.25,35.75,2
-228.25,57.5,-15.0,-40.5,407.75,60.75,5.0,39.75,2
-281.0,80.0,-21.25,-33.25,385.25,69.25,10.0,34.75,2
-342.0,73.5,-28.25,-27.25,335.5,66.5,2.0,34.0,2
-411.75,7.75,-21.5,-30.5,310.25,56.5,-12.25,23.25,2
-480.0,0.5,-23.5,-26.75,306.5,21.5,3.0,14.75,2
-556.75,3.5,-18.0,-31.25,285.5,28.25,-4.5,27.75,2
-533.75,-69.75,-16.25,-28.5,275.0,41.0,-1.75,49.5,2
-417.5,-88.0,-23.75,-33.5,257.25,35.25,4.75,97.5,2
-316.75,-49.75,-9.75,-22.0,228.5,48.5,6.5,165.0,2
-243.0,-82.0,-7.75,-10.25,178.5,53.25,17.75,159.25,2
-182.75,-152.25,-10.25,-12.25,144.0,61.25,13.5,135.5,2
-138.0,-131.0,-5.0,-22.5,121.0,61.5,23.0,97.0,2
-79.25,-47.5,-3.0,-18.5,97.5,50.75,24.75,80.0,2
56.25,21.25,0.75,-15.5,73.0,53.0,29.0,71.5,2
223.5,-11.75,-0.5,-28.0,58.5,48.0,30.5,-15.5,2
361.25,-66.25,4.75,-23.0,21.0,35.0,23.75,-90.75,2
499.5,57.5,-4.5,-21.25,-4.5,25.25,20.25,-90.0,2
588.25,209.0,-1.75,-24.75,-8.25,13.25,19.5,-46.75,2
591.0,262.75,13.0,-19.5,-11.0,6.0,24.75,-71.75,2
518.75,241.5,3.5,-14.25,0.0,-9.0,25.0,-41.75,2
390.75,174.25,10.75,-19.25,-17.75,-4.5,24.0,6.75,2
181.5,95.0,15.25,-7.5,-15.0,12.0,22.25,32.75,2
37.5,78.75,4.75,-10.75,-20.0,24.75,22.25,45.5,2
17.25,60.0,10.0,-16.25,-27.25,27.75,19.25,35.0,2
-2.25,-80.5,15.25,-13.5,-26.5,18.75,15.25,58.5,2
-14.75,-251.0,19.5,-21.0,-34.0,15.25,20.5,41.0,2
-55.0,-291.75,24.5,-14.25,-42.25,15.75,17.25,49.5,2
-143.25,-212.25,23.0,-14.0,-39.75,21.5,18.0,37.0,2
-226.75,-119.25,25.5,-18.5,-8.75,15.0,17.0,39.25,2
-260.25,-109.25,22.75,-12.75,-8.0,12.0,16.25,50.25,2
-244.0,-49.0,16.75,-5.75,-13.0,13.5,19.25,57.0,2
-192.75,21.5,12.0,-28.5,-18.5,19.25,14.75,63.5,2
-103.75,-3.0,4.25,-25.0,-22.0,32.25,18.0,64.25,2
-34.75,97.25,7.75,-10.75,-16.75,24.75,15.5,72.75,2
34.5,106.0,7.0,-14.75,-13.0,13.25,18.0,49.25,2
21.25,20.5,-3.25,-15.75,-31.0,1.5,14.5,48.75,2
-30.5,-4.0,9.75,-17.75,-58.75,-3.75,8.25,61.75,2
-74.25,-90.0,3.0,1.0,-69.75,3.5,11.0,52.0,2
-134.0,-43.0,1.25,0.0,-96.5,-3.5,13.75,46.0,2
-83.0,79.75,7.0,3.75,-104.75,6.25,7.25,43.0,2
9.75,219.5,-7.75,9.5,-122.75,10.25,3.25,37.5,2
43.5,431.75,-2.0,-2.75,-138.25,20.25,13.5,55.75,2
47.75,480.25,5.0,-12.25,-145.5,35.0,17.25,60.75,2
33.0,299.25,-0.25,-11.5,-153.75,44.25,11.25,68.0,2
68.25,15.0,-6.0,-11.5,-146.25,33.75,0.0,76.25,2
79.0,-154.5,-10.75,-10.5,-152.0,30.5,2.5,79.75,2
71.5,-226.75,2.25,-13.5,-144.5,29.25,-8.25,89.75,2
101.75,-213.5,-2.75,-32.5,-126.0,21.25,-15.0,94.0,2
36.5,-159.5,-2.5,-33.0,-128.5,53.75,-8.75,99.0,2
-96.25,-13.5,5.25,-28.5,-116.5,48.25,-13.75,101.75,2
-214.25,198.75,-1.25,-29.0,-101.75,42.5,-19.0,118.25,2
-247.75,275.25,-3.0,-31.75,-94.75,47.25,-8.75,109.75,2
-318.5,207.25,-16.25,-25.75,-70.0,58.0,-9.75,100.0,2
-401.0,6.25,-25.5,-31.25,-65.75,54.5,-12.25,94.75,2
-361.5,-25.0,-29.75,-47.75,-54.25,50.5,-17.25,85.0,2
-302.25,-21.25,-36.75,-51.0,-24.0,56.5,-15.5,87.25,2
-179.5,-442.0,-27.0,-50.75,-4.0,51.75,-2.5,79.5,2
-9.75,-850.75,-41.5,-30.5,13.25,49.25,-8.5,97.5,2
188.5,-776.5,-52.5,-43.5,11.5,37.25,-9.25,96.5,2
303.25,-615.25,-52.5,-42.75,9.75,41.75,-10.5,72.5,2
346.75,-504.5,-64.25,-41.0,-1.5,26.75,-16.0,54.25,2
458.75,-380.5,-58.25,-50.5,-23.75,26.5,-9.75,38.75,2
533.0,-230.5,-64.75,-34.75,-27.5,21.75,-6.75,27.0,2
510.25,-8.5,-73.25,-37.75,-63.25,0.5,-3.75,6.25,2
431.75,134.25,-83.75,-33.0,-114.5,-5.5,-1.0,-5.25,2
374.75,116.25,-76.75,-29.0,-144.5,-7.25,9.25,-5.75,2
291.0,89.25,-76.25,-20.5,-178.0,-14.5,6.5,-29.75,2
109.5,161.5,-80.75,-5.5,-205.75,-33.5,-0.75,-26.0,2
-12.75,297.0,-78.5,15.0,-240.0,-25.75,20.25,11.75,2
-69.5,399.25,-74.5,15.75,-267.0,-46.25,30.0,1.0,2
-79.5,454.5,-65.75,26.5,-304.0,-65.0,34.0,-47.5,2
-56.0,479.5,-73.75,43.25,-356.25,-82.25,33.0,-86.0,2
51.75,363.75,-64.0,46.75,-420.25,-65.0,27.5,-118.25,2
282.25,287.5,-64.25,49.25,-472.75,-32.5,41.75,-145.5,2
487.5,339.75,-56.25,47.0,-516.25,-50.75,34.0,-184.0,2
549.75,316.75,-57.75,53.0,-545.5,-45.0,31.75,-198.0,2
389.25,283.5,-48.75,49.25,-554.25,-57.75,35.5,-173.5,2
197.5,306.5,-29.75,59.0,-551.75,-79.5,30.5,-157.0,2
92.5,213.5,-29.5,71.75,-533.25,-91.75,34.25,-125.75,2
-2.25,152.25,-19.5,68.75,-520.25,-92.0,44.0,-58.0,2
-165.25,90.25,-8.25,70.75,-501.0,-56.5,49.75,7.0,2
-347.25,-6.5,15.75,72.75,-465.5,-40.0,55.5,17.5,2
-489.0,-106.0,33.25,62.75,-441.25,-11.5,52.5,-30.0,2
-684.5,-253.25,42.5,56.5,-403.5,-4.5,42.5,-36.75,2
-810.5,-242.75,58.75,49.0,-340.75,-24.5,49.0,-39.0,2
-648.25,-274.75,67.5,43.5,-293.75,-15.0,50.75,-74.25,2
-355.75,-116.25,73.25,32.25,-259.75,-23.75,39.75,-132.0,2
-48.0,29.0,79.0,20.75,-209.75,-24.75,29.0,-220.0,2
302.5,-80.75,86.75,7.75,-174.5,-24.0,32.25,-183.5,2
406.0,-93.5,107.5,-4.5,-105.25,-39.75,41.5,-12.5,2
311.5,-63.75,121.5,-30.0,-11.75,-52.5,39.0,121.0,2
302.75,58.0,136.25,-68.25,51.5,-61.0,31.5,154.75,2
310.25,75.25,132.5,-49.75,8.25,-25.75,30.0,99.75,2
268.0,109.5,79.0,16.75,-67.75,-0.75,48.25,-9.25,2
-1.5,170.0,68.25,69.5,-32.0,-1.75,77.5,-94.25,2
-539.0,147.75,102.5,125.0,94.25,34.0,121.75,-170.75,2
-965.25,104.75,149.25,173.25,252.0,72.0,134.75,-212.0,2
-1092.25,87.0,184.0,186.25,345.25,88.75,123.75,-206.25,2
-959.75,110.5,166.75,165.5,323.0,66.0,99.75,-154.0,2
-557.25,37.25,124.5,81.0,224.25,29.75,54.5,-25.75,2
-116.0,9.5,82.5,-6.25,127.0,-1.75,28.5,100.75,2
-24.0,-55.0,38.0,-85.25,64.0,-20.75,0.25,207.25,2
-24.75,-115.25,-0.75,-135.25,31.75,-34.25,-11.5,227.75,2
8.0,-75.0,-8.25,-162.0,37.5,-35.75,-25.5,252.25,2
-55.25,55.0,-22.25,-189.0,26.75,-50.0,-42.0,274.75,2
-220.25,43.75,-31.75,-192.25,33.5,-64.25,-47.75,274.25,2
-28.25,-255.0,-13.5,-197.25,60.25,-51.75,-55.0,274.0,2
329.0,-343.75,-12.0,-194.75,72.5,-45.0,-43.25,251.0,2
388.0,-140.0,-15.25,-192.25,94.25,-23.25,-27.0,229.25,2
612.5,-30.75,-10.5,-156.25,142.5,-3.5,-8.0,172.5,2
836.75,-29.75,18.75,-104.0,215.0,24.5,11.25,97.5,2
1025.75,-37.0,40.25,-61.75,278.0,51.25,36.5,50.75,2
869.25,-109.75,48.5,-19.75,323.5,58.5,45.75,31.5,2
364.0,-145.75,55.5,-3.0,351.0,78.0,49.25,35.75,2
-11.75,-148.75,46.25,-4.75,347.0,74.75,33.0,78.0,2
-492.75,-73.0,31.5,-17.25,303.0,58.25,19.75,126.25,2
-778.0,-20.75,18.75,-55.25,247.25,32.5,24.25,134.75,2
-854.0,-15.25,-12.5,-93.5,182.25,2.0,-11.5,187.75,2
-798.75,-4.5,-53.5,-121.25,121.25,-17.5,-23.25,234.5,2
-702.25,-55.0,-56.25,-150.75,111.5,-18.0,-20.25,238.0,2
-838.75,-32.25,-66.75,-135.5,107.25,-13.5,-2.0,201.0,2
-990.25,-3.25,-63.75,-110.5,103.75,-10.0,-3.0,106.75,2
-938.75,4.75,-57.75,-135.0,93.25,0.0,-14.0,83.5,2
-300.25,5.75,-59.75,-126.25,115.0,12.0,-0.25,116.0,2
715.25,-4.0,-62.25,-88.25,160.75,29.0,10.0,119.75,2
1075.5,-29.25,-50.5,-64.75,158.0,36.0,24.75,122.0,2
1068.75,-8.75,-37.25,-80.5,135.75,27.75,5.5,152.25,2
792.5,50.0,-53.25,-92.25,127.25,19.75,9.75,168.75,2
543.0,112.75,-58.0,-101.25,117.0,24.5,14.5,170.25,2
225.5,163.5,-52.5,-80.75,139.5,32.5,20.25,134.75,2
131.75,127.5,-37.5,-35.5,172.5,41.0,46.5,130.5,2
5.25,45.25,-38.25,-34.25,163.75,48.25,45.25,128.75,2
-34.25,-99.5,-25.0,-46.5,161.25,47.5,40.75,98.0,2
12.75,-219.25,-23.25,-34.0,165.75,45.5,42.25,62.25,2
18.5,-226.0,-24.25,-5.25,182.25,40.0,54.0,15.25,2
87.25,10.5,-33.0,-22.25,174.75,43.25,43.0,18.5,2
28.0,209.25,-40.5,-33.75,178.5,44.25,42.0,19.25,2
-166.75,118.25,-22.5,-66.0,206.5,31.75,39.0,32.75,2
-733.0,61.25,-21.25,-87.25,254.25,49.0,14.5,97.75,2
-1180.5,-46.75,-3.0,-94.25,265.5,63.25,20.75,154.25,2
-861.25,-184.5,18.75,-91.5,251.25,63.25,15.5,129.75,2
236.0,-322.75,20.0,-70.25,251.75,66.0,29.25,93.25,2
749.5,-429.5,20.25,-51.75,217.5,36.0,31.75,42.75,2
830.0,-283.25,10.25,-35.25,194.25,5.5,28.5,8.5,2
698.0,-62.75,13.5,-39.25,208.5,27.25,47.75,31.0,2
-108.0,-36.25,20.75,-25.0,209.25,47.5,48.0,20.25,2
-370.25,-42.0,4.25,-3.75,177.25,38.75,51.75,27.5,2
-418.0,56.5,13.0,11.75,180.0,56.25,40.75,41.25,2
-335.25,27.25,24.25,11.75,172.0,58.75,45.25,25.75,2
-87.5,25.75,10.0,9.0,170.0,50.75,51.25,-14.5,2
86.0,45.25,30.0,4.0,187.75,60.75,42.25,-34.75,2
90.5,41.75,29.0,23.0,145.75,63.0,43.75,-59.5,2
38.75,50.75,3.75,48.75,76.0,63.25,50.75,-134.0,2
83.75,31.75,-34.0,98.25,-4.5,71.0,56.0,-191.75,2
270.0,105.5,-61.5,109.0,-64.5,72.25,48.5,-201.0,2
255.75,128.5,-64.5,112.0,-72.75,46.75,57.75,-192.0,2
175.25,145.25,-75.75,118.75,-82.5,33.25,65.75,-179.0,2
78.0,124.5,-69.0,100.5,-100.0,5.25,64.25,-160.25,2
-523.25,90.25,-66.5,98.0,-75.75,7.0,63.5,-99.75,2
-1019.75,71.75,-50.5,70.0,-56.0,48.75,49.0,-67.5,2
-1173.0,38.25,-43.25,60.5,-51.0,40.5,45.75,-105.5,2
-1263.25,61.5,-53.75,59.0,-47.25,26.5,42.5,-95.75,2
-1241.75,82.75,-50.0,59.25,-44.0,22.75,38.0,-97.75,2
685.25,81.5,-54.75,61.0,-58.25,27.5,38.0,-109.25,2
772.0,47.0,-63.75,62.25,-77.25,16.25,30.75,-122.75,2
930.75,27.25,-68.5,66.75,-95.25,3.5,36.0,-152.5,2
1117.0,29.5,-77.0,84.5,-136.5,29.5,36.75,-176.25,2
1323.0,25.25,-90.5,108.5,-151.25,42.5,43.0,-209.25,2
987.25,18.75,-84.25,100.0,-130.25,62.75,36.5,-174.75,2
157.5,-3.75,-79.5,100.0,-107.5,81.0,41.0,-162.75,2
48.25,8.5,-69.75,111.75,-141.25,85.75,42.75,-189.25,2
-200.0,30.75,-78.75,115.5,-147.0,80.25,37.5,-175.25,2
-129.75,29.0,-79.5,109.25,-139.0,56.5,44.25,-191.0,2
-567.0,55.5,-63.75,106.0,-141.5,34.75,36.75,-199.75,2
-797.0,74.0,-39.75,95.75,-103.25,28.0,38.0,-161.5,2
-952.5,95.5,-15.0,89.75,-54.0,15.5,58.75,-161.75,2
-487.0,71.25,-6.75,106.75,10.5,-6.25,70.0,-181.25,2
-187.75,31.0,23.0,118.75,74.0,22.25,73.75,-188.0,2
14.75,1.75,61.25,149.25,215.5,70.25,96.0,-250.75,2
-190.25,-56.5,117.5,229.0,392.5,142.25,120.5,-293.75,2
-404.25,-101.25,151.75,251.5,466.25,166.25,110.5,-277.5,2
-526.0,-131.0,176.0,320.0,584.0,188.25,120.5,-317.0,2
-756.75,-184.25,219.25,468.25,728.0,236.5,132.75,-323.25,2
-858.75,-190.5,204.5,443.0,604.75,176.25,98.0,-229.5,2
-835.0,-146.75,175.75,387.25,484.0,158.5,83.25,-168.75,2
-737.5,-115.75,143.5,322.25,350.0,121.5,60.75,-70.5,2
-624.5,-50.5,106.0,194.75,145.25,87.5,36.25,-5.25,2
-538.0,-53.25,88.25,179.5,87.5,99.75,29.75,16.0,2
-751.25,-61.5,56.5,82.5,-61.75,63.75,5.75,90.5,2
-1205.5,-24.0,28.5,-26.0,-169.75,39.25,-13.5,154.5,2
-1149.5,44.25,-13.5,-151.75,-295.75,-5.5,-39.5,220.25,2
-703.5,114.5,-52.0,-267.0,-335.25,-36.5,-47.75,222.75,2
467.75,74.75,-63.5,-261.75,-310.75,-39.0,-64.25,254.75,2
1119.75,61.25,-75.25,-334.25,-356.5,-91.75,-70.0,284.0,2
1271.5,47.0,-75.0,-325.25,-300.75,-140.25,-55.75,253.75,2
1291.75,45.0,-81.75,-325.25,-304.75,-115.0,-61.5,247.25,2
1193.5,44.25,-75.5,-326.5,-258.5,-57.5,-55.75,227.25,2
260.25,16.0,-71.0,-321.25,-262.0,-24.0,-49.75,234.0,2
-124.5,15.0,-69.25,-325.5,-259.25,-19.25,-46.0,225.75,2
173.75,15.0,-77.25,-354.5,-288.75,-28.0,-57.75,250.75,2
536.5,23.25,-110.0,-436.5,-346.25,-41.0,-65.25,242.5,2
837.25,23.0,-105.5,-424.5,-320.5,-53.0,-66.0,221.25,2
764.0,24.75,-112.5,-432.25,-299.75,-65.25,-72.0,189.75,2
448.75,-4.25,-97.75,-345.75,-170.5,-74.75,-53.75,131.0,2
233.0,-2.0,-85.0,-283.25,-154.0,-93.75,-48.0,139.0,2
264.5,40.75,-104.0,-330.0,-176.75,-58.5,-45.0,114.0,2
123.0,14.75,-86.25,-272.75,-100.25,-22.25,-33.75,94.75,2
129.5,18.25,-83.75,-312.75,-187.75,-41.75,-55.5,126.25,2
248.5,37.5,-97.75,-327.25,-181.25,-3.0,-43.75,93.25,2
180.75,36.25,-87.0,-318.75,-173.25,19.25,-41.75,95.5,2
-25.25,68.25,-88.25,-361.75,-231.5,12.0,-47.25,114.0,2
-309.5,94.25,-111.5,-372.25,-287.25,11.5,-42.75,152.5,2
-112.75,135.5,-148.5,-468.75,-452.25,-39.25,-74.0,240.25,2
128.5,185.25,-182.25,-505.0,-527.25,-91.75,-96.0,298.25,2
255.0,253.75,-226.25,-485.25,-507.5,-152.25,-116.25,321.25,2
539.75,293.25,-218.25,-451.25,-459.0,-194.25,-107.0,313.25,2
668.5,269.5,-181.5,-404.25,-389.25,-156.75,-86.75,311.5,2
522.0,236.0,-142.0,-353.5,-231.25,-145.75,-64.5,283.75,2
282.25,173.25,-83.0,-291.25,-56.0,-117.0,-50.75,258.75,2
75.0,90.75,-36.5,-250.75,78.0,-18.5,-49.25,226.5,2
-155.0,3.25,45.25,-187.75,248.5,32.75,-17.75,191.75,2
-324.5,-64.25,91.25,-147.0,348.25,70.25,-8.75,180.75,2
-392.75,-118.0,146.25,-100.5,471.0,83.0,4.75,134.5,2
-634.25,-138.75,206.25,-61.25,520.25,90.25,19.25,79.25,2
-1029.5,-163.75,242.25,-8.25,551.0,94.0,31.25,31.5,2
-918.0,-193.75,276.0,44.75,533.25,86.0,43.75,-22.0,2
-473.5,-206.5,273.5,105.5,473.25,94.5,58.75,-93.75,2
-297.0,-225.75,285.0,152.5,405.5,100.5,66.0,-185.25,2
-116.0,-183.0,288.5,198.25,296.5,118.0,85.5,-241.5,2
-243.75,-155.75,289.0,254.25,185.75,105.75,107.0,-270.25,2
-477.25,-123.0,280.5,292.25,52.0,72.75,107.75,-336.5,2
-659.75,-58.0,256.75,333.5,-82.75,42.25,110.75,-402.0,2
-709.75,-36.75,238.25,363.5,-212.75,18.25,125.5,-441.75,2
-510.75,14.75,203.75,392.75,-276.25,-54.0,134.25,-489.5,2
-397.75,48.0,163.5,397.0,-273.0,-150.25,135.0,-498.25,2
-439.25,62.25,119.75,399.75,-237.25,-238.5,136.5,-471.0,2
-491.5,85.75,78.5,374.75,-171.75,-223.5,131.5,-433.75,2
-328.0,60.75,35.5,353.0,-85.5,-108.25,113.5,-416.5,2
-457.75,34.0,7.5,337.25,-1.5,-29.0,101.0,-381.0,2
-502.25,32.25,-31.5,300.25,62.0,11.5,91.0,-336.0,2
197.25,29.0,-52.25,282.75,117.25,37.75,81.0,-297.25,2
627.75,16.5,-75.25,263.75,142.25,86.25,74.5,-266.75,2
809.75,8.75,-92.0,237.5,156.25,86.0,74.75,-235.25,2
991.5,-17.75,-94.25,215.75,182.0,79.0,60.75,-194.0,2
732.5,-27.5,-103.0,203.5,197.5,77.0,57.5,-169.25,2
513.0,-0.25,-109.25,185.25,213.75,50.25,44.75,-142.0,2
263.75,-3.5,-115.25,164.25,215.0,58.25,45.25,-133.25,2
-110.5,-6.25,-122.5,146.75,206.5,48.5,43.75,-122.5,2
-561.0,-10.0,-126.75,129.75,212.0,58.75,43.25,-102.0,2
-291.25,-9.0,-114.5,125.5,220.0,86.25,58.75,-77.25,2
158.0,6.25,-113.25,111.5,226.0,89.5,54.25,-72.75,2
-303.25,-3.75,-113.75,84.75,215.5,92.0,45.25,-71.5,2
-870.25,-5.5,-105.75,70.5,205.25,78.25,30.75,-42.0,2
-921.5,-10.25,-103.5,56.5,197.25,80.5,16.5,-52.75,2
993.0,-8.0,-105.5,40.0,189.0,102.25,26.75,-37.25,2
1049.0,-1.0,-105.0,42.5,178.25,121.0,34.0,-18.0,2
1143.75,3.25,-114.0,20.0,160.0,102.75,36.25,-7.5,2
1156.0,4.5,-107.25,9.5,157.5,91.0,21.0,8.0,2
604.0,-25.5,-106.25,6.75,151.5,84.75,16.25,2.75,2
419.5,-44.5,-122.0,0.5,151.75,54.5,23.25,18.75,2
-202.0,-41.75,-102.25,-19.25,135.25,-2.25,10.75,31.0,2
-283.25,-20.75,-96.0,-33.25,126.25,-69.0,7.75,26.5,2
-544.75,-2.25,-84.5,-33.25,114.0,-59.0,0.0,33.75,2
-558.5,0.25,-91.0,-42.0,108.75,-3.25,7.0,49.75,2
-631.75,17.25,-88.75,-51.25,104.75,35.0,-2.5,56.0,2
-530.5,26.0,-68.0,-55.75,90.0,66.75,-5.25,61.5,2
-310.75,31.75,-70.0,-50.25,91.0,59.75,-6.5,69.5,2
-428.75,7.0,-59.0,-66.5,88.75,56.0,-17.25,70.5,2
-398.25,-8.25,-54.5,-59.0,82.5,68.25,0.75,80.0,2
-439.75,0.25,-58.25,-55.5,65.25,73.0,-6.0,90.75,2
-433.25,-18.75,-65.25,-51.0,58.0,73.0,-7.25,103.0,2
-480.0,-30.75,-60.5,-56.0,54.75,53.5,-9.75,113.0,2
19.25,-53.75,-57.75,-57.0,42.0,47.25,-8.75,109.25,2
291.25,-52.75,-45.0,-55.0,48.5,31.5,1.25,106.25,2
409.25,-50.75,-40.75,-62.25,56.0,39.25,-7.5,116.5,2
377.0,-41.75,-42.25,-51.5,49.75,26.75,8.0,125.25,2
62.75,-14.5,-28.75,-64.5,34.5,8.0,1.25,124.25,2
63.25,2.5,-27.25,-66.25,27.75,23.75,4.0,130.0,2
-45.75,22.75,-18.5,-68.0,23.0,34.5,4.25,135.75,2
-134.0,1.75,-12.25,-69.25,16.5,61.5,-2.75,151.75,2
-63.25,-0.75,-8.75,-59.0,4.75,92.75,6.75,176.25,2
94.25,21.25,1.25,-46.75,-2.5,133.25,18.5,177.5,2
202.25,26.75,11.25,-46.0,-1.25,118.75,19.0,171.25,2
189.5,3.25,11.75,-58.75,-2.25,82.0,15.0,188.25,2
79.0,-8.25,17.25,-53.0,-2.25,58.0,16.75,191.0,2
28.0,-5.0,10.75,-61.0,-10.75,54.25,9.75,196.5,2
-44.0,-6.5,16.0,-61.0,-13.75,53.0,11.25,201.75,2
-141.25,16.75,15.75,-51.75,-25.75,50.25,12.5,185.25,2
1.25,34.75,8.5,-56.5,-17.0,49.0,24.25,202.75,2
239.25,43.25,9.5,-56.5,-8.5,41.25,24.75,205.0,2
221.5,18.25,8.5,-44.25,-16.75,31.5,25.5,210.5,2
50.25,-14.75,-1.5,-50.0,-7.5,0.25,18.25,217.75,2
55.5,-95.75,-11.75,-52.75,-8.5,-19.25,2.25,204.25,2
-144.5,-154.0,-1.5,-51.75,4.5,-16.5,5.0,218.75,2
-348.5,-115.75,-12.75,-50.75,14.0,17.5,4.25,216.25,2
-211.25,-49.0,-9.0,-48.25,19.25,15.0,-2.5,217.25,2
-86.0,-24.75,-8.0,-55.0,13.75,-9.0,-4.25,227.75,2
-13.5,-31.5,-22.0,-43.25,3.0,-5.75,-0.75,225.25,2
-50.75,-21.0,-9.25,-40.25,-12.0,-3.0,-10.5,231.0,2
-137.75,0.5,-5.75,-40.0,-18.25,1.75,-7.75,230.25,2
-119.0,33.75,-18.0,-38.0,-4.5,1.5,-9.25,225.0,2
-109.5,25.25,-14.75,-46.75,-17.5,2.25,-19.75,222.25,2
-77.0,-7.0,-12.0,-44.0,-29.75,0.5,-13.25,219.25,2
12.25,-26.75,-6.25,-37.25,-35.75,8.0,-3.5,230.0,2
43.75,10.75,1.0,-33.25,-48.25,11.5,1.0,229.0,2
10.5,45.75,2.75,-35.5,-54.5,6.75,7.0,222.75,2
92.0,74.25,10.25,-32.75,-55.0,23.5,15.25,221.0,2
235.5,106.5,14.0,-29.0,-70.0,17.5,7.25,215.0,2
232.75,85.0,16.5,-19.75,-85.5,-0.25,6.25,213.5,2
173.5,49.25,9.25,-27.75,-83.75,-29.25,7.0,211.75,2
111.75,-5.75,12.25,-31.25,-99.5,-45.0,11.75,201.0,2
2.75,-9.75,27.5,-28.25,-113.25,-81.25,22.25,199.5,2
-19.5,25.5,20.25,-26.75,-121.5,-113.25,28.5,198.25,2
-58.0,22.75,31.0,-21.5,-132.0,-63.75,38.0,191.75,2
-101.5,-49.75,38.0,-24.5,-144.0,-44.75,36.25,183.5,2
-118.0,-75.25,22.5,-11.25,-166.25,-47.5,29.25,160.75,2
-162.75,-5.5,25.75,-11.5,-175.5,-23.75,25.25,156.75,2
-136.0,25.0,13.25,-31.75,-191.25,-40.5,21.75,146.25,2
-105.0,40.5,11.75,-29.5,-205.25,-32.75,27.0,137.5,2
-73.5,36.75,24.75,-24.0,-204.25,-15.75,31.0,123.0,2
-34.5,24.5,17.0,-28.5,-208.75,-18.5,34.75,117.75,2
17.0,3.0,17.0,-21.0,-204.75,-9.75,43.5,108.75,2
68.75,-45.75,12.75,-21.0,-208.5,-17.25,38.75,99.25,2
52.25,-16.75,13.5,-14.0,-197.75,-22.5,33.0,91.0,2
-5.5,12.75,17.0,-9.0,-203.75,-6.5,43.5,72.0,2
8.0,-10.75,7.25,-23.75,-212.75,16.5,43.25,70.75,2
47.25,8.0,1.75,-22.25,-211.5,5.5,32.25,56.0,2
66.0,31.5,12.5,-19.5,-227.0,-11.25,47.75,49.75,2
39.5,51.25,6.25,-18.5,-216.25,-19.25,46.0,44.25,2
-42.5,88.25,0.75,-23.25,-210.5,-15.5,45.5,23.5,2
-56.25,66.5,11.0,-10.5,-205.75,17.0,57.25,12.0,2
-73.5,37.25,9.25,-14.5,-191.75,22.75,49.25,6.5,2
-74.5,41.0,8.0,-23.5,-190.25,19.5,50.25,4.0,2
-70.0,4.25,8.25,-18.5,-178.75,12.5,36.25,-8.0,2
-90.5,-12.75,4.75,-12.0,-185.5,9.25,29.25,-13.25,2
-85.25,-69.25,-2.0,-13.75,-175.75,36.5,35.75,-21.25,2
-125.0,-131.75,2.25,-20.5,-176.0,66.0,22.25,-24.75,2
-128.75,-146.25,8.5,-15.75,-158.0,54.25,16.5,-29.25,2
-74.0,-137.25,3.75,-23.25,-133.75,51.5,17.5,-27.0,2
33.5,-18.5,4.25,-23.0,-127.0,81.5,17.0,-32.75,2
91.5,53.5,9.0,-23.5,-105.0,94.5,16.75,-44.75,2
102.75,41.25,-4.0,-30.5,-90.0,88.5,14.75,-49.25,2
101.5,45.5,-11.5,-23.25,-70.0,62.0,16.0,-59.25,2
16.25,25.5,-2.25,-26.5,-41.0,45.0,19.5,-59.25,2
-60.5,9.0,-14.75,-25.25,-21.75,14.0,19.75,-68.5,2
-135.25,-17.0,-8.5,-18.0,13.5,-20.0,20.5,-59.75,2
-112.25,-61.5,11.75,-18.5,38.5,14.5,12.5,-65.0,2
-67.25,-105.5,-3.0,-27.5,73.25,4.0,13.0,-72.5,2
-64.25,-113.25,-10.75,-25.0,118.5,2.5,8.0,-65.0,2
-17.0,-105.25,-15.5,-21.5,141.5,55.0,-11.75,-82.5,2
25.25,-1.75,-11.5,-24.0,175.5,90.0,-4.5,-74.0,2
79.25,65.5,-22.5,-34.25,213.75,112.25,-2.25,-91.75,2
74.5,5.75,-33.75,-35.0,250.75,113.0,1.75,-108.75,2
10.25,-2.0,-32.25,-36.75,270.0,107.75,16.5,-109.0,2
-19.25,20.25,-47.5,-39.5,281.5,110.0,6.5,-128.75,2
14.75,70.0,-51.75,-31.75,286.25,123.25,20.75,-130.75,2
91.75,101.75,-60.25,-43.5,291.5,110.75,22.25,-133.25,2
109.25,142.5,-51.5,-32.25,295.5,104.25,16.25,-148.75,2
48.75,122.0,-47.0,-23.5,284.75,107.5,14.25,-164.75,2
35.5,26.5,-53.5,-33.0,273.25,90.5,7.0,-184.5,2
93.25,-49.5,-53.0,-32.25,262.25,85.5,18.75,-200.5,2
172.75,-89.0,-60.25,-20.5,230.0,87.5,19.5,-213.5,2
335.25,-36.0,-59.25,-14.75,204.5,79.0,20.0,-221.75,2
443.25,21.5,-61.0,-12.0,179.5,58.5,17.25,-224.25,2
395.75,52.5,-61.0,-4.75,163.5,56.0,14.5,-232.75,2
292.25,36.25,-53.25,-2.0,174.0,50.25,18.5,-249.5,2
146.75,32.0,-60.75,-1.0,196.75,15.0,7.75,-262.25,2
-15.75,53.75,-51.5,-11.75,229.5,15.5,4.0,-274.5,2
-167.5,52.75,-41.0,-4.5,256.0,3.0,13.5,-267.5,2
-266.5,33.75,-30.25,6.5,291.5,-20.5,12.25,-275.75,2
-290.25,61.75,-26.0,17.75,307.25,27.5,15.0,-279.0,2
-258.0,107.0,-26.25,33.0,307.25,43.5,20.25,-275.75,2
-280.25,84.25,-23.0,23.75,286.0,39.75,13.0,-285.5,2
-270.25,56.0,-25.5,23.0,286.5,55.0,21.0,-284.25,2
-133.75,33.5,-29.0,30.0,257.0,50.5,38.0,-288.75,2
99.5,30.25,-23.75,43.5,213.75,52.5,44.5,-291.75,2
367.75,6.5,-17.5,42.0,187.25,47.75,47.25,-292.5,2
441.0,47.75,-15.0,45.75,155.75,72.0,58.25,-272.5,2
413.25,64.75,-2.0,56.0,132.25,56.0,46.25,-264.5,2
386.0,22.75,-1.75,51.75,109.5,39.5,48.5,-266.75,2
327.5,56.5,5.5,49.75,92.75,33.0,46.5,-251.25,2
250.25,83.5,10.0,36.25,60.25,31.75,47.75,-247.5,2
177.5,59.0,1.25,42.5,41.0,60.25,45.0,-234.0,2
143.25,2.0,10.75,42.75,16.5,48.0,40.25,-215.5,2
54.25,-5.0,25.5,30.25,5.25,41.0,54.75,-203.0,2
-45.75,38.5,30.75,22.75,6.5,36.25,38.0,-178.0,2
-99.0,48.0,43.0,22.0,18.5,39.5,47.0,-159.75,2
-83.5,63.0,49.0,29.5,44.75,30.5,44.5,-129.5,2
-74.25,76.25,43.75,16.0,61.5,29.25,43.5,-90.5,2
-147.75,57.25,55.0,22.5,83.5,29.0,44.75,-78.0,2
-231.5,-0.75,57.75,23.5,78.0,17.25,44.25,-58.75,2
-326.0,15.5,48.75,25.0,64.25,12.25,46.0,-43.0,2
-459.0,36.0,48.0,22.0,72.0,-5.0,47.5,-25.5,2
-506.25,-46.5,55.25,5.25,86.75,-23.25,55.75,-3.25,2
-557.5,-65.25,55.0,5.25,98.75,-28.5,53.5,35.25,2
-609.25,-94.5,51.0,-2.75,106.5,-19.75,55.5,54.5,2
-588.75,-104.75,54.25,-4.75,121.75,-6.75,46.5,63.5,2
-602.0,-27.5,55.75,-14.75,129.25,12.75,47.5,77.25,2
-513.25,53.25,50.75,-16.0,136.5,6.75,49.5,78.5,2
-321.0,132.5,56.0,-22.5,141.25,-9.75,36.0,92.75,2
-77.75,93.5,58.25,-43.25,125.0,-16.75,43.75,115.0,2
246.75,25.0,59.75,-44.25,106.5,-15.25,38.75,122.5,2
543.5,-19.0,53.0,-50.0,94.5,-20.75,29.0,132.5,2
611.0,-130.75,45.25,-53.75,104.5,-46.75,26.75,133.25,2
455.0,-190.25,38.0,-51.25,112.75,-31.0,28.5,123.0,2
280.5,-150.5,47.5,-52.75,117.25,12.5,40.5,130.25,2
162.75,-41.25,53.5,-48.25,133.75,40.75,37.75,146.25,2
11.25,6.75,36.25,-41.75,132.75,43.5,27.5,134.0,2
-105.25,-72.5,44.25,-42.75,123.25,41.5,32.25,139.5,2
-156.25,-211.5,38.5,-43.75,129.0,45.25,44.5,144.5,2
-215.0,-200.0,40.75,-42.0,135.5,41.75,38.0,163.0,2
-255.25,-50.0,31.5,-27.75,147.25,40.75,26.5,182.75,2
-317.75,8.75,25.0,-21.5,157.0,53.75,28.75,136.5,2
-311.25,41.25,34.25,-26.25,158.75,39.5,16.5,109.5,2
-317.25,-22.75,37.25,-17.25,167.0,48.5,12.5,76.5,2
-389.0,-77.5,36.25,-27.0,178.5,46.0,20.25,57.0,2
-370.0,-26.25,28.25,-31.75,196.25,28.25,25.0,52.75,2
-298.25,25.75,38.5,-29.5,192.5,31.75,19.5,43.5,2
-292.5,62.25,38.5,-46.75,175.5,45.0,15.0,42.75,2
-414.75,-7.5,20.75,-56.75,137.75,51.75,15.5,114.5,2
-489.0,1.25,-4.5,-83.5,76.25,31.5,4.5,222.0,2
-505.0,6.5,-30.5,-118.5,19.5,36.5,-19.5,245.0,2
-446.25,15.75,-48.5,-141.0,-26.5,25.5,-29.0,296.25,2
-154.0,28.25,-67.5,-175.25,-40.25,11.0,-35.5,357.5,2
85.75,-86.25,-62.75,-207.75,-23.0,8.5,-57.5,334.25,2
236.0,-49.0,-46.25,-175.75,-10.25,-4.0,-27.5,208.75,2
289.5,-8.0,-51.25,-98.25,-9.25,-13.5,9.25,77.25,2
231.0,-60.0,-27.5,-24.5,61.5,-32.75,17.25,-6.25,2
131.75,-134.5,11.5,40.25,169.5,14.25,57.75,-97.5,2
-33.25,-165.0,53.25,114.25,277.25,72.5,95.5,-133.25,2
-52.25,-95.0,56.25,110.75,210.25,34.25,55.75,-10.75,2
279.75,18.25,-21.0,-23.75,-18.75,-7.75,1.0,167.0,2
651.75,86.25,-83.25,-120.5,-137.75,-17.25,-22.0,256.5,2
717.75,31.75,-101.0,-166.0,-163.75,-54.5,-39.75,290.25,2
607.25,2.5,-95.25,-183.0,-129.75,-66.5,-35.0,305.75,2
512.0,-60.25,-79.5,-178.0,-90.0,-46.75,-42.75,282.5,2
449.0,4.0,-53.5,-168.25,-54.25,-11.5,-38.25,250.75,2
335.25,164.75,-47.5,-153.25,-26.25,6.75,-28.0,235.0,2
173.75,135.0,-27.75,-147.0,-0.75,-8.75,-16.5,195.5,2
15.0,-25.25,-2.25,-131.25,48.25,8.25,-2.5,187.5,2
-125.5,-106.0,0.75,-97.25,58.75,14.5,11.5,178.75,2
-206.75,-10.0,12.75,-81.5,53.5,32.25,19.5,139.25,2
-159.25,72.5,3.5,-77.75,41.0,41.75,11.0,118.75,2
-71.25,111.75,1.75,-64.0,24.0,29.25,17.25,84.0,2
26.75,105.75,1.0,-46.25,1.75,40.0,13.25,85.0,2
73.0,93.0,-8.75,-23.5,-24.25,25.75,15.5,64.75,2
12.5,105.0,-8.25,-5.25,-37.25,22.5,19.75,76.0,2
-94.25,59.75,-24.75,12.5,-44.75,25.5,22.5,74.25,2
-290.0,-23.25,-21.25,30.25,-44.75,16.0,20.5,42.75,2
-484.75,-93.75,-12.0,34.25,-18.75,22.75,23.25,16.25,2
-542.25,-86.25,-4.5,27.0,-18.5,24.75,27.0,-22.0,2
-564.75,27.0,-0.5,26.75,-34.75,17.5,27.0,-11.25,2
-523.5,44.25,-3.5,28.25,-33.5,10.25,25.75,-18.0,2
-456.0,65.75,-10.25,25.0,-56.5,10.5,20.0,-66.5,2
-451.5,235.0,-14.5,27.5,-38.25,7.25,28.5,-40.75,2
-458.0,235.0,3.75,24.25,-25.0,14.5,24.75,-3.5,2
-379.75,145.5,2.75,22.25,-42.25,33.5,29.25,36.0,2
-233.5,0.0,2.5,19.5,-53.0,30.5,35.5,21.5,2
-65.5,-92.75,1.5,42.75,-88.25,31.25,34.5,-46.0,2
139.25,-156.0,-16.25,42.25,-106.0,33.0,38.0,-53.0,2
309.0,-443.25,-13.5,25.5,-100.0,17.5,26.75,-68.5,2
504.75,-665.0,1.75,32.5,-96.75,16.25,37.75,-77.25,2
704.5,-526.25,0.25,26.75,-104.0,26.75,32.5,-70.5,2
757.5,-233.25,-1.75,27.75,-114.5,17.0,20.5,-6.75,2
715.5,-2.75,7.25,29.5,-133.0,10.75,37.25,48.0,2
541.75,95.75,-5.25,37.0,-162.75,18.25,33.75,37.25,2
355.0,54.5,-11.5,40.5,-186.0,30.25,47.0,15.75,2
134.0,71.25,7.25,43.0,-177.25,32.25,59.0,29.5,2
-245.75,74.25,15.5,45.0,-188.5,45.25,56.75,53.0,2
-492.0,69.75,32.0,49.25,-211.25,45.25,65.5,22.75,2
-501.25,96.25,40.25,50.75,-230.5,27.25,65.0,10.0,2
-477.0,110.75,30.25,51.75,-250.0,26.5,68.75,3.5,2
-534.25,213.25,26.75,57.75,-266.75,30.75,71.75,-14.75,2
-547.5,280.0,18.0,42.25,-283.75,44.5,69.75,-11.75,2
-494.0,335.75,-2.0,46.0,-305.5,49.25,56.0,-18.0,2
-447.5,445.5,-21.0,48.75,-315.5,20.0,38.5,-35.0,2
-296.5,654.5,-29.25,43.25,-322.0,-31.0,41.75,-46.0,2
-66.25,572.5,-45.5,38.0,-327.5,-6.25,34.75,-48.5,2
152.75,125.0,-53.25,28.5,-323.0,32.5,29.5,-53.25,2
363.75,-228.5,-53.5,38.25,-319.75,2.25,38.5,-58.75,2
486.25,-282.25,-67.0,35.5,-292.75,10.0,36.5,-50.5,2
615.0,-183.5,-59.75,30.25,-269.25,10.0,22.25,-54.25,2
751.25,-448.0,-63.25,24.25,-266.5,-6.5,20.75,-54.25,2
923.75,-332.5,-69.5,27.0,-266.0,15.75,17.25,-43.5,2
946.25,-108.75,-68.25,27.25,-241.25,39.5,12.5,-47.5,2
582.25,-299.75,-79.0,11.25,-207.5,32.25,11.25,-38.5,2
142.75,-428.75,-89.0,12.5,-166.75,21.25,-1.0,-34.75,2
-107.0,-463.25,-102.0,7.0,-138.25,16.0,10.5,-27.0,2
22.5,-83.25,-108.5,2.75,-126.25,40.5,12.5,-24.75,2
176.25,-80.75,-110.0,-8.25,-117.5,60.75,16.75,-22.5,2
160.0,-130.0,-100.0,-15.25,-109.75,27.25,26.0,-10.75,2
88.75,-8.25,-96.25,-5.5,-93.75,-0.75,18.0,-14.75,2
-44.5,-99.5,-99.75,-8.5,-78.0,23.0,28.0,-13.0,2
-107.25,-88.5,-86.0,-17.25,-72.75,49.25,24.75,-18.75,2
-49.0,-182.75,-90.0,-24.25,-70.5,6.0,4.5,-31.5,2
115.75,-68.5,-90.5,-19.25,-68.5,-22.5,3.0,-26.25,2
249.75,149.75,-90.0,-29.75,-53.25,-25.75,7.75,-22.75,2
240.75,224.75,-90.75,-36.25,-37.75,-43.25,5.75,10.5,2
175.25,145.0,-75.75,-39.5,-17.75,-50.75,4.75,23.75,2
37.75,84.75,-81.5,-49.25,4.0,-78.25,16.75,-3.25,2
-288.0,163.25,-70.5,-38.25,7.25,-80.25,22.75,-17.75,2
-783.25,263.0,-44.0,-28.75,3.25,-13.5,21.75,-35.75,2
-918.5,235.5,-26.75,-11.75,-13.25,12.25,17.5,-40.5,2
-454.5,211.75,-31.25,-11.5,-6.0,-4.5,13.25,-38.25,2
-43.75,224.5,-24.25,-12.0,17.5,2.75,14.25,-38.0,2
411.75,184.5,-19.5,-3.0,31.75,-5.25,15.5,-47.5,2
509.75,222.5,-24.25,-13.0,28.75,-8.75,7.5,-34.5,2
279.0,186.75,-24.5,-25.5,14.75,-30.0,13.0,6.75,2
338.75,160.25,-13.25,-34.0,21.0,-47.75,36.75,10.25,2
329.0,116.5,1.5,-19.0,37.25,-56.25,24.5,15.5,2
216.25,68.25,-3.5,-18.75,29.0,-41.5,25.0,6.75,2
58.5,-4.25,-18.25,-22.25,10.0,-19.75,17.5,-8.5,2
-84.0,-18.25,-20.75,-22.5,19.25,-3.0,13.0,-20.75,2
-250.75,50.25,-25.0,-17.5,26.25,22.75,15.75,-28.0,2
-181.5,28.25,-32.25,-1.0,33.0,20.75,0.75,-21.0,2
-124.5,40.75,-17.75,-5.0,46.0,-0.75,13.25,-23.0,2
-135.75,1.5,-33.5,3.0,40.0,-13.75,13.75,17.0,2
-26.75,4.5,-30.25,5.0,40.5,-51.5,20.25,57.75,2
17.5,34.0,-22.25,7.75,26.5,-71.75,23.5,14.5,2
78.5,46.5,-22.0,21.5,32.0,-81.5,22.5,-2.75,2
-37.0,69.75,-5.0,16.25,88.0,-66.25,19.5,-11.0,2
-171.5,51.75,-7.5,10.75,112.25,-3.75,19.0,-70.0,2
-147.25,31.0,-12.75,21.0,121.25,-22.25,18.25,-74.5,2
-31.75,-16.25,7.5,20.5,136.5,-12.0,12.5,-81.5,2
38.5,-15.5,14.0,7.5,145.25,-23.5,25.0,-67.75,2
141.5,0.25,17.75,18.75,160.75,-19.25,13.0,-30.75,2
188.75,36.75,22.25,8.5,185.25,17.5,11.0,-15.5,2
59.0,40.75,13.75,7.0,207.0,8.5,17.75,56.0,2
-578.0,24.75,32.25,9.0,201.5,39.25,12.25,31.25,2
-1146.5,6.25,31.5,2.75,225.5,55.5,9.25,58.75,2
-1068.0,-49.0,45.5,3.5,279.75,62.25,6.0,164.25,2
-548.5,-81.25,63.0,-32.5,320.75,50.5,3.5,116.75,2
204.25,-95.5,68.75,-38.75,343.25,54.25,2.5,20.75,2
763.25,-91.75,75.0,-56.5,352.75,47.25,-8.5,56.0,2
929.25,-108.5,71.25,-74.0,368.5,27.0,-12.25,114.5,2
1031.5,-122.75,88.5,-85.0,395.0,37.75,-12.5,96.25,2
624.75,-104.0,100.75,-107.5,430.5,48.0,-12.0,117.75,2
203.75,-107.0,111.75,-114.25,457.0,75.0,-9.5,74.0,2
-411.25,-129.25,121.25,-138.5,483.0,82.5,-15.75,70.5,2
-941.0,-131.75,145.5,-166.75,518.0,78.75,-16.75,218.25,2
-1045.0,-113.5,156.75,-179.5,544.5,68.0,-32.5,321.5,2
-1064.0,-117.75,171.0,-190.5,539.25,57.25,-25.0,333.5,2
-941.25,-156.0,194.0,-193.0,527.25,51.5,-25.25,314.0,2
-604.0,-201.25,188.75,-175.5,495.25,47.5,-29.5,280.0,2
-260.75,-216.5,199.25,-163.25,447.0,41.25,-19.0,251.5,2
-69.0,-168.25,215.25,-136.75,362.25,44.25,-17.0,225.0,2
-180.75,-124.25,212.75,-112.5,277.5,43.5,-3.0,168.75,2
-842.75,-119.5,200.25,-93.5,175.0,28.0,12.75,116.5,2
-1263.5,-98.75,180.25,-65.0,60.25,12.5,25.75,50.5,2
-1017.5,-57.75,172.5,-24.75,-56.25,-11.0,31.0,2.25,2
-609.5,6.75,167.75,-3.75,-180.0,-19.0,43.75,-39.5,2
254.0,75.0,156.0,24.0,-290.5,-44.25,62.75,-96.25,2
766.5,110.0,139.0,51.75,-379.5,-68.25,65.5,-150.75,2
783.5,132.25,109.75,75.75,-408.0,-75.25,62.25,-188.75,2
750.75,149.0,76.75,87.25,-382.0,-80.25,53.0,-183.25,2
465.0,165.0,45.25,91.25,-321.25,-62.0,56.25,-175.5,2
450.25,154.0,5.75,92.75,-249.0,-50.0,63.5,-144.75,2
341.75,105.5,-29.5,75.5,-183.5,-35.5,38.0,-111.75,2
-448.5,87.0,-75.25,60.75,-121.25,-8.75,45.25,-115.75,2
-516.75,98.25,-100.5,54.75,-86.25,20.25,41.25,-101.25,2
-214.0,79.25,-109.0,36.25,-38.25,57.0,23.75,-61.0,2
-110.5,67.5,-130.75,19.75,-4.25,77.25,28.0,-47.0,2
554.5,51.0,-144.25,15.75,22.75,86.25,14.0,-66.5,2
1661.25,29.75,-160.5,14.0,28.75,101.5,11.0,-62.75,2
1483.5,42.75,-174.75,9.75,26.25,110.25,1.5,-42.5,2
1286.25,63.5,-179.5,4.5,51.5,122.25,-0.75,-29.25,2
1135.25,107.0,-169.0,7.5,68.0,119.75,-2.25,-14.75,2
917.25,103.75,-167.0,0.0,84.0,119.5,-18.25,-1.75,2
220.0,40.0,-175.0,-1.75,86.75,125.5,-4.5,32.75,2
-68.25,24.75,-161.0,15.25,83.0,118.25,13.25,58.75,2
-56.5,25.75,-155.5,3.5,86.75,131.75,2.75,37.5,2
-38.0,23.0,-157.75,3.75,75.25,141.0,-9.5,17.0,2
-91.0,22.0,-144.75,4.25,65.0,124.0,-16.5,12.75,2
-423.0,7.25,-145.75,-5.0,63.75,124.25,0.25,31.75,2
-525.0,10.75,-134.5,10.25,59.5,127.75,-0.25,17.75,2
-610.75,3.75,-116.0,2.0,55.0,118.25,-8.5,-3.25,2
-837.75,-4.75,-100.0,-9.75,56.0,121.0,4.75,0.25,2
-701.5,-16.5,-89.5,-4.0,36.25,118.25,7.25,-6.25,2
-358.0,-29.75,-96.75,-4.5,16.25,102.5,11.0,4.25,2
-204.0,-19.25,-85.0,-10.75,15.75,119.5,4.5,3.25,2
-128.25,-17.25,-66.5,-12.5,5.0,128.0,10.75,10.75,2
-266.25,-38.5,-60.5,-15.75,6.25,103.75,14.0,-0.5,2
-386.75,-50.25,-58.0,-17.25,6.75,80.25,7.0,-11.0,2
-368.25,-63.25,-63.25,-14.25,-9.5,79.75,-0.75,2.25,2
-315.5,-64.75,-65.75,-25.5,-13.25,51.0,-2.5,0.75,2
-149.0,-69.25,-67.5,-16.0,7.25,-53.5,7.0,0.75,2
35.25,-91.75,-68.25,-20.75,14.75,-90.0,6.0,8.25,2
104.75,-94.0,-60.25,-19.5,15.25,3.75,4.5,0.75,2
-47.25,-89.25,-60.5,-11.75,43.5,20.5,2.5,-9.75,2
-433.0,-106.75,-44.0,-13.5,49.25,-17.0,24.75,-2.75,2
-826.75,-168.75,-39.75,-11.5,57.5,31.5,31.5,-3.25,2
-822.75,-166.25,-40.25,-23.5,41.0,27.75,17.75,-10.0,2
-624.5,-114.5,-28.25,-29.0,23.25,28.75,13.0,-18.25,2
-95.75,-116.0,-42.25,-41.75,31.25,31.0,17.25,-25.75,2
509.5,-123.25,-29.25,-41.25,20.5,15.5,16.75,-29.25,2
803.5,-96.0,-12.75,-56.75,34.0,10.75,24.75,-33.5,2
923.5,-36.5,-9.25,-53.75,36.75,10.5,31.25,-40.25,2
840.75,25.75,-16.75,-36.25,18.75,27.5,20.5,-48.0,2
610.0,88.75,-6.0,-41.5,17.25,24.25,15.5,-39.5,2
207.0,119.5,-2.25,-42.75,33.5,17.25,10.75,-41.0,2
-326.25,101.25,0.75,-41.5,21.25,-2.75,23.75,-31.0,2
-629.25,106.0,14.5,-26.0,14.25,11.5,26.25,-30.25,2
-304.0,148.75,1.75,-26.5,21.0,2.0,21.25,-43.25,2
126.25,156.5,-4.5,-30.75,9.0,-15.0,23.75,-43.25,2
411.75,131.25,-11.0,-36.75,10.5,-8.5,21.5,-60.0,2
469.0,92.5,-13.5,-42.75,5.0,-8.0,23.75,-61.5,2
307.75,63.5,-14.75,-25.0,15.25,16.0,27.25,-61.0,2
278.5,34.25,-10.25,-22.5,40.5,36.25,28.0,-49.75,2
205.5,-88.25,-14.0,-17.5,93.25,48.5,37.0,-6.0,2
211.5,-198.25,-16.5,-13.75,155.5,64.75,40.5,17.75,2
141.0,-234.25,-18.25,-5.5,240.0,108.0,41.75,57.0,2
-41.25,-366.75,-20.5,-18.75,361.75,151.25,44.25,94.75,2
-310.25,-471.25,-4.25,-23.5,384.5,152.0,29.25,71.0,2
-462.0,-309.25,-11.0,-12.75,257.5,97.25,32.75,23.75,2
-343.5,-105.0,-15.75,-2.5,72.0,19.25,33.0,-57.0,2
-223.5,17.75,-14.0,3.0,-92.0,-37.5,33.5,-123.0,2
-88.75,162.25,-13.75,2.25,-224.0,-65.75,37.25,-159.5,2
-109.25,249.0,-3.75,15.5,-319.5,-72.75,18.0,-194.5,2
-219.75,325.5,0.0,7.5,-411.5,-105.75,15.25,-214.0,2
-93.5,321.25,-1.25,10.75,-405.25,-108.75,9.25,-212.75,2
-1.0,244.5,-3.25,2.75,-377.0,-99.75,5.25,-191.5,2
-64.75,243.75,1.5,-10.0,-329.5,-81.75,12.75,-157.75,2
159.75,282.0,6.5,-16.25,-247.0,-61.5,21.5,-131.25,2
429.5,294.75,-1.25,-22.75,-199.25,-67.75,19.75,-113.5,2
347.0,223.5,-7.25,-20.0,-148.75,-78.5,31.25,-92.5,2
146.0,76.0,2.0,-21.25,-117.5,-81.0,47.0,-76.5,2
102.25,-79.0,1.75,-6.25,-94.5,-62.0,53.5,-62.0,2
231.5,-25.25,3.75,-10.0,-74.0,-51.75,53.5,-59.0,2
216.75,86.0,-5.5,-18.5,-52.75,-40.25,47.0,-56.25,2
82.5,108.0,-3.0,-18.25,-23.75,-40.25,46.5,-61.5,2
-19.0,127.5,12.0,-20.5,12.75,-10.5,55.0,-56.25,2
-102.5,40.75,0.0,-21.0,27.75,12.0,73.25,-44.5,2
-144.0,-27.25,4.75,-22.75,41.5,-0.75,70.5,-33.0,2
-213.5,-37.5,-3.0,-17.75,85.5,29.25,74.0,-31.75,2
-370.0,-31.5,2.25,-12.75,80.0,37.25,66.75,-37.0,2
-488.0,31.5,-3.0,-15.75,80.75,47.0,54.75,-24.25,2
-531.0,54.75,-1.0,-29.0,101.75,41.25,56.5,-18.0,2
-551.25,4.5,-4.5,-30.75,110.25,10.0,54.25,-24.0,2
-528.75,-64.0,-8.25,-24.5,128.5,37.0,67.5,-17.75,2
-602.75,-120.25,7.5,-19.0,129.75,53.5,61.5,-25.5,2
-529.75,-67.5,-11.5,-30.25,128.5,48.75,58.0,-43.0,2
-301.5,-6.25,-4.25,-27.5,126.25,44.5,53.75,-47.0,2
-209.0,-30.25,-10.0,-22.0,128.75,22.25,50.0,-25.0,2
-69.25,-25.0,-6.0,-32.75,146.75,9.5,56.75,-17.5,2
-38.75,-22.0,-3.25,-29.75,152.25,-0.75,57.25,-16.0,2
-143.5,-23.25,-8.0,-22.0,166.75,-34.25,72.25,3.75,2
-170.5,-61.0,9.0,-23.75,174.5,-63.25,68.25,5.75,2
-12.75,-89.25,3.5,-20.25,193.25,-18.75,66.0,11.5,2
388.0,-91.75,-1.5,-7.5,198.5,14.5,77.75,37.0,2
601.75,-69.75,8.75,-1.75,204.75,-1.75,76.75,46.25,2
622.5,9.0,22.75,10.25,211.75,8.75,76.5,57.5,2
561.5,-3.75,20.75,-4.25,200.75,10.25,66.0,66.75,2
345.75,-71.25,21.0,-6.75,212.0,25.5,61.75,85.5,2
181.0,-152.0,14.0,6.0,206.0,38.0,67.5,106.5,2
58.25,-138.75,15.75,6.5,197.75,27.25,62.5,97.5,2
26.5,-19.5,17.0,3.25,188.0,45.75,65.75,98.75,2
-22.0,-8.75,19.75,-13.0,158.0,57.75,65.75,135.0,2
-18.0,-60.5,22.5,-13.75,142.5,50.25,62.25,149.5,2
50.25,-89.5,21.25,-30.5,137.25,44.0,57.25,153.75,2
-120.75,-25.75,27.25,-27.0,128.75,46.25,60.5,154.75,2
-372.75,25.0,31.25,-15.0,114.0,45.75,45.75,168.75,2
-223.5,19.75,28.5,-17.75,116.75,28.5,24.25,188.5,2
138.75,34.25,23.0,-12.5,110.75,28.75,30.5,189.5,2
188.25,55.25,34.25,-21.5,89.5,50.0,30.5,216.0,2
267.75,63.0,35.0,-14.25,77.25,56.75,31.75,225.5,2
266.5,8.0,40.25,-3.75,60.75,64.5,17.75,229.25,2
164.75,6.5,33.25,-7.25,40.0,64.0,-1.25,236.5,2
59.5,16.0,23.0,-13.5,24.25,42.5,5.25,248.75,2
-346.75,-4.75,20.25,-13.25,9.0,37.0,-0.75,249.25,2
-1051.25,-25.25,2.75,-15.75,-12.75,21.25,-16.5,260.25,2
-1177.75,-21.25,16.25,-14.5,-28.5,23.25,-9.0,270.5,2
-623.0,-9.25,10.5,-16.0,-25.0,44.5,-18.0,245.25,2
-5.0,-8.25,4.75,-21.25,-22.25,47.25,-16.25,245.25,2
598.75,25.0,10.25,-17.5,-8.25,43.5,-17.75,242.75,2
733.5,10.75,-7.25,-28.5,4.5,53.75,-25.5,249.0,2
575.25,4.5,-3.5,-18.25,9.25,66.5,-22.25,244.5,2
252.0,-22.75,-10.0,-25.75,-17.0,70.0,-29.5,235.5,2
65.25,-89.5,-16.75,-21.0,-55.5,64.25,-38.25,236.5,2
142.5,-50.0,-6.25,-12.5,-53.0,63.25,-37.75,239.75,2
316.0,-16.75,-2.25,-22.5,-60.75,75.0,-27.0,242.75,2
418.5,-85.75,-5.75,-10.5,-54.0,56.5,-40.75,242.75,2
339.75,-48.5,-9.25,-23.75,-51.25,29.25,-38.5,241.25,2
206.5,5.5,-7.25,-32.75,-48.25,5.25,-37.75,249.5,2
39.25,32.0,-9.25,-32.75,-36.75,17.5,-43.75,261.75,2
-117.25,74.25,-13.5,-35.0,-53.5,42.75,-39.25,246.75,2
-207.75,51.0,-19.25,-27.25,-49.75,23.25,-37.75,238.0,2
-227.5,45.0,-22.75,-28.0,-45.75,19.75,-28.5,239.0,2
-236.0,25.75,-19.75,-25.5,-55.5,18.25,-22.25,244.5,2
-252.0,13.5,-10.75,-32.0,-54.0,-4.25,-19.0,249.0,2
-168.75,25.0,-10.0,-32.5,-43.75,10.0,-18.25,237.0,2
36.75,47.0,-7.5,-37.75,-31.5,7.0,-18.5,233.75,2
161.0,72.0,-10.0,-50.5,-25.5,-14.5,-21.0,221.25,2
197.25,75.25,-14.25,-44.75,-16.75,-15.0,-7.5,199.75,2
253.0,39.75,-13.25,-39.5,-18.5,-15.75,-3.75,169.25,2
200.5,-44.0,-21.0,-34.25,-32.5,-21.75,-9.5,162.5,2
117.0,-128.25,-16.5,-34.75,-73.0,-32.75,-5.75,172.75,2
30.5,-115.25,-12.0,-37.5,-123.75,-16.75,-3.5,162.0,2
-54.0,-42.5,-12.75,-22.25,-140.0,-20.0,20.0,156.5,2
-160.75,2.5,-9.75,-8.75,-152.0,-17.75,10.0,146.0,2
-262.25,18.5,-9.5,-8.0,-180.25,-0.25,8.75,144.25,2
-299.75,12.0,-7.5,-12.75,-206.5,-3.75,34.25,129.0,2
-266.25,38.25,-9.0,-13.0,-242.75,-12.75,13.25,102.5,2
-176.0,47.75,-5.75,-22.5,-289.25,-19.0,10.25,114.75,2
-128.5,41.5,2.0,-19.25,-325.5,7.0,27.5,95.25,2
-122.5,50.0,11.25,-2.75,-361.5,11.5,23.5,73.25,2
-90.5,42.5,2.75,-10.0,-406.25,0.5,24.0,50.25,2
-59.25,27.25,-5.0,-12.5,-462.25,-15.0,18.25,51.5,2
-83.5,25.0,22.0,-7.5,-505.25,-27.25,21.75,46.75,2
-43.75,24.25,22.0,-4.75,-515.25,-48.0,27.25,27.5,2
12.25,13.25,-0.25,-7.25,-466.0,-87.75,14.25,64.25,2
62.0,0.75,-13.0,-18.25,-397.0,-56.25,16.25,88.5,2
126.75,-24.5,-37.5,-29.25,-341.0,0.25,13.0,88.75,2
149.5,-28.75,-54.25,-37.25,-281.0,10.5,21.0,79.5,2
184.5,-24.5,-92.5,-45.0,-219.75,25.25,24.0,83.25,2
239.0,-32.0,-125.25,-50.75,-183.0,46.5,14.25,74.5,2
272.25,-18.25,-124.0,-54.5,-200.0,51.75,25.0,57.5,2
261.5,-10.75,-129.5,-49.75,-226.5,70.5,27.25,27.0,2
222.0,-7.25,-109.0,-37.5,-272.75,58.25,26.75,-21.25,2
137.75,-8.25,-76.75,-28.25,-310.5,15.5,36.5,-46.75,2
62.75,4.25,-60.25,-25.75,-326.75,-29.25,41.5,-68.5,2
17.5,18.5,-41.75,-15.75,-334.75,-63.0,36.5,-82.75,2
-25.0,16.75,-23.25,-6.25,-321.5,-53.75,41.75,-81.75,2
-70.25,0.0,-12.25,2.0,-308.25,-32.25,37.75,-95.25,2
-112.0,-26.25,12.25,7.25,-288.5,-31.5,41.25,-104.5,2
-161.25,15.25,28.5,14.5,-262.25,-1.25,44.0,-104.25,2
-190.0,40.75,40.75,24.0,-243.25,32.5,34.5,-117.25,2
-192.0,44.5,52.0,17.5,-237.0,6.25,35.25,-103.5,2
-188.5,63.25,63.75,25.0,-230.75,14.0,36.25,-89.5,2
-163.5,43.0,62.5,23.0,-216.5,20.75,24.5,-115.25,2
-132.25,36.25,45.5,14.75,-173.25,16.0,17.0,-112.0,2
-105.25,19.0,54.75,21.25,-143.5,-1.25,21.0,-116.75,2
-97.5,-10.0,40.0,10.0,-107.75,-30.5,18.25,-129.0,2
-77.75,-10.75,35.5,11.5,-77.75,-34.0,17.5,-133.5,2
-77.0,-15.75,40.5,6.25,-48.5,-73.0,19.5,-140.25,2
-95.75,-3.5,35.5,1.75,-2.5,-34.25,26.5,-149.75,2
-100.5,-17.0,36.5,8.5,29.5,-9.75,17.0,-160.25,2
-57.25,-15.75,20.25,4.0,79.5,-15.75,25.0,-160.0,2
44.5,24.25,17.75,7.0,109.0,23.75,33.25,-157.5,2
111.25,23.0,5.0,9.25,139.25,51.0,14.25,-165.25,2
97.25,29.25,-2.75,2.0,158.5,78.75,16.25,-177.75,2
43.5,48.5,-19.75,-6.0,162.5,82.25,10.5,-185.75,2
-7.75,37.5,-26.25,-2.25,155.75,91.5,0.75,-205.0,2
-68.5,39.25,-27.25,-15.25,143.5,96.25,4.5,-210.25,2
-82.75,38.0,-42.75,-21.25,152.25,84.25,-1.5,-210.0,2
-78.75,54.75,-39.75,-19.25,155.0,70.75,11.5,-208.0,2
-114.5,49.5,-20.5,-25.25,166.25,85.75,13.25,-199.75,2
-151.0,9.75,3.0,-19.75,173.0,96.75,14.5,-204.75,2
-144.75,6.25,16.0,-17.75,173.5,84.0,14.5,-210.25,2
-65.75,-25.0,9.25,-14.5,203.5,71.0,10.75,-205.5,2
-11.25,-24.75,5.75,-5.0,227.5,76.25,20.0,-189.25,2
-1.5,10.0,16.0,-8.25,277.5,77.75,11.5,-186.25,2
-12.75,-15.25,17.75,-10.25,380.25,74.5,8.75,-190.5,2
-48.0,-48.0,18.5,-18.75,487.0,101.5,3.75,-175.75,2
-106.5,-43.5,20.0,-25.0,592.0,91.75,16.5,-183.75,2
-179.25,-18.25,37.75,-26.25,661.0,89.0,15.25,-191.5,2
-217.75,-6.5,41.25,-27.0,691.0,97.5,8.25,-172.75,2
-179.0,-10.0,28.75,-25.0,701.0,91.0,15.25,-191.75,2
-111.5,-2.25,23.5,-31.75,682.5,100.0,5.5,-198.5,2
-69.5,8.75,17.0,-23.0,632.5,100.75,15.25,-193.75,2
-29.25,18.0,15.25,-26.25,584.25,112.0,14.75,-187.5,2
-11.5,15.25,17.25,-29.0,554.0,106.25,26.25,-162.5,2
-18.25,17.75,31.75,-16.25,547.75,118.0,41.0,-163.5,2
-35.5,4.75,21.75,-17.75,578.0,130.25,25.0,-178.75,2
-37.75,-14.0,19.0,-16.0,580.5,101.75,25.0,-200.25,2
-69.0,-34.75,29.25,-29.75,542.75,75.5,25.75,-212.5,2
-88.0,-19.5,14.5,-21.5,474.0,65.5,21.0,-230.0,2
-33.75,57.75,16.0,-11.25,443.5,76.25,28.75,-228.75,2
22.5,44.25,2.75,-6.5,431.75,75.25,31.5,-224.25,2
54.0,7.25,-16.0,-17.25,407.75,78.75,26.75,-239.5,2
39.75,-22.5,-17.5,-19.5,371.25,69.75,28.75,-181.5,2
35.75,-43.25,-17.0,-6.25,322.25,63.25,17.25,-156.25,2
44.0,-51.25,-17.75,-27.25,258.25,54.5,9.25,-170.25,2
9.0,-96.75,-24.0,-31.25,206.5,36.75,9.0,-120.5,2
-61.75,-79.75,-43.0,-30.75,189.5,45.5,15.25,-106.5,2
-88.25,-27.0,-48.25,-30.0,176.0,29.75,20.0,-89.75,2
-34.5,38.75,-54.5,-27.5,140.0,49.75,18.0,-90.5,2
44.5,49.75,-73.25,-25.5,123.0,49.5,31.75,-92.25,2
160.75,43.0,-72.0,-18.0,100.0,39.0,29.5,-94.0,2
315.75,60.25,-92.75,-28.5,64.0,49.0,14.75,-101.75,2
426.0,43.0,-101.75,-21.75,24.25,42.25,11.0,-95.0,2
451.0,28.5,-107.5,-4.5,-4.5,24.5,12.25,-93.5,2
379.25,-16.0,-105.0,-1.0,-22.25,16.25,14.0,-68.0,2
269.25,-60.75,-89.25,-4.75,-62.25,6.0,24.25,-75.75,2
208.5,-13.0,-113.5,7.0,-73.25,-30.0,26.5,-62.25,2
140.75,-25.75,-108.75,6.0,-80.0,-34.0,22.5,-44.75,2
111.25,-58.5,-101.0,-2.25,-97.25,2.25,24.75,-43.25,2
106.75,-48.5,-101.5,-2.75,-91.75,19.75,21.0,-43.25,2
81.0,-15.25,-79.0,-4.75,-78.5,18.25,18.75,6.75,2
20.5,256.25,-52.25,6.25,-37.5,23.75,19.5,44.5,2
-64.0,347.0,-38.25,7.25,-35.75,6.75,19.5,44.0,2
-112.75,219.25,-38.0,11.75,-67.25,-4.0,28.25,71.0,2
-118.0,203.0,-30.75,15.0,-87.25,-16.0,31.0,94.5,2
-129.25,42.25,-9.25,9.0,-68.5,7.0,44.25,129.25,2
-116.0,17.75,0.75,8.5,-45.75,37.0,50.0,129.75,2
-30.5,27.25,-8.25,6.75,-73.75,46.25,48.5,139.5,2
-18.0,-115.5,9.25,1.25,-99.0,68.75,42.0,144.5,2
43.25,-196.5,-4.75,13.5,-134.5,53.25,39.0,123.0,2
164.5,-148.25,-11.0,10.25,-103.25,39.25,36.0,147.0,2
95.5,-138.75,23.5,-5.75,-17.25,14.0,27.25,183.0,2
-10.5,-149.25,15.0,-2.75,-34.5,-28.75,27.75,163.0,2
-19.0,21.0,-6.0,-2.5,-68.0,-67.0,40.5,155.75,2
-53.25,125.75,0.25,5.25,-60.0,-76.25,39.75,143.75,2
-7.25,304.25,-7.25,14.5,-96.0,-90.75,43.5,128.0,2
45.75,319.0,-10.25,31.25,-120.25,-71.5,46.75,121.0,2
43.75,104.0,-8.0,48.0,-125.25,-37.75,39.0,88.5,2
78.25,101.25,-24.5,51.25,-148.75,-33.75,54.5,67.75,2
84.25,-13.75,-12.0,55.0,-116.25,-10.0,57.25,74.5,2
65.75,-158.0,-2.5,37.0,-57.75,-2.0,52.75,91.75,2
14.5,-60.5,11.0,30.0,-30.75,21.75,54.75,71.5,2
-27.75,-136.25,18.5,42.25,6.0,39.25,59.5,58.5,2
-74.75,-369.75,48.0,49.75,61.25,54.75,70.5,26.75,2
-192.5,-394.75,74.25,74.5,125.5,78.75,78.5,9.0,2
-215.25,-389.75,76.75,78.0,186.25,87.0,77.25,33.25,2
-273.0,-461.0,95.5,70.75,274.0,107.25,99.5,-13.0,2
-605.5,-346.75,145.25,175.75,534.0,144.75,157.0,-156.25,2
-783.75,-115.75,237.0,332.25,817.75,198.75,167.5,-240.0,2
-778.75,-27.75,280.5,444.25,868.75,229.5,166.5,-211.5,2
-741.25,-23.25,288.0,524.5,814.5,216.75,172.0,-157.75,2
-667.0,31.0,271.75,491.5,691.5,179.0,133.5,-32.75,2
-580.5,99.25,200.5,293.75,452.75,99.75,83.0,138.75,2
-396.0,129.5,124.25,76.0,175.75,44.75,54.75,236.25,2
-123.0,135.5,60.5,-57.75,53.5,1.75,15.25,234.75,2
-53.75,137.75,21.25,-142.5,7.25,-38.0,-10.0,218.75,2
46.5,281.0,-5.0,-191.75,-51.75,-37.75,-15.5,187.25,2
136.0,571.25,-30.75,-257.25,-111.25,-41.75,-27.75,220.0,2
169.25,556.25,-62.0,-319.5,-184.75,-65.75,-41.5,288.75,2
284.25,308.75,-89.75,-375.0,-234.25,-80.25,-65.25,283.25,2
415.5,96.5,-117.25,-430.75,-256.75,-85.0,-72.0,288.5,2
608.0,-176.75,-132.75,-470.75,-297.5,-99.75,-77.75,385.0,2
785.75,-230.25,-146.5,-495.5,-322.75,-100.25,-78.75,462.25,2
810.75,-50.75,-151.25,-480.25,-312.0,-105.75,-82.0,433.75,2
769.25,66.0,-156.75,-492.75,-329.75,-122.25,-91.75,429.75,2
776.75,-25.25,-173.75,-500.75,-352.25,-131.5,-97.25,370.5,2
666.5,-45.25,-183.25,-468.25,-350.75,-110.75,-100.25,325.5,2
610.75,-108.25,-190.5,-466.75,-372.5,-110.5,-109.0,407.0,2
624.5,-327.75,-199.5,-463.0,-365.5,-120.5,-112.5,375.75,2
564.5,-540.75,-172.0,-422.5,-276.75,-112.75,-93.25,318.75,2
455.75,-505.0,-132.25,-374.75,-194.0,-93.75,-91.0,348.75,2
275.25,-75.25,-108.75,-348.25,-117.75,-63.0,-73.0,305.5,2
83.25,193.75,-77.5,-290.75,-4.0,-30.75,-45.25,228.75,2
-106.75,219.75,-37.25,-254.0,81.0,2.75,-41.5,259.0,2
-307.75,240.75,6.75,-231.25,166.75,20.0,-17.5,310.25,2
-450.75,270.25,47.0,-185.0,223.5,31.75,-9.25,290.75,2
-494.75,225.5,85.5,-166.25,294.25,32.0,-2.75,271.0,2
-565.75,-93.5,119.75,-144.0,350.75,60.0,13.75,244.25,2
-620.5,-344.5,148.0,-117.0,352.25,64.25,27.75,206.75,2
-666.75,-254.5,181.75,-76.0,332.25,46.75,37.5,163.25,2
-753.75,-141.75,206.25,-29.75,271.5,23.25,45.75,125.75,2
-700.0,-152.0,217.75,11.0,208.5,-4.0,55.0,70.75,2
-608.25,-26.75,219.0,38.0,121.75,1.5,58.5,16.25,2
-556.5,129.5,210.25,71.25,30.25,-15.0,78.25,-37.75,2
-519.5,255.0,207.0,128.25,-107.75,-14.5,85.25,-101.5,2
-396.5,267.75,199.0,161.25,-254.5,-7.25,91.5,-142.5,2
-303.75,52.5,188.0,196.0,-386.0,-18.25,111.25,-194.0,2
-252.25,123.0,172.0,223.5,-516.25,-33.0,98.25,-244.0,2
-286.25,588.75,149.5,247.0,-631.5,-59.75,102.5,-290.0,2
-316.25,839.0,140.5,273.25,-713.75,-78.0,118.5,-328.0,2
-386.0,435.0,114.0,301.25,-712.75,-55.75,125.75,-333.5,2
-492.75,-95.5,71.0,303.0,-661.75,-66.75,132.5,-327.5,2
-481.0,-373.25,44.0,290.25,-602.75,-72.0,118.0,-317.25,2
-321.0,-478.5,-1.75,273.0,-559.5,-32.5,107.5,-281.5,2
-134.0,-475.25,-27.5,259.0,-504.25,0.5,97.75,-252.5,2
33.5,-418.5,-62.75,233.0,-436.75,41.25,99.25,-214.0,2
198.0,-442.75,-80.75,204.5,-384.0,76.0,81.25,-200.0,2
310.0,-429.25,-99.25,186.25,-325.5,78.75,69.0,-190.5,2
437.5,-296.75,-117.75,170.75,-267.25,54.0,64.0,-196.5,2
418.25,-301.0,-128.5,157.0,-224.25,59.5,42.0,-205.25,2
285.75,24.25,-147.0,146.0,-217.0,37.5,45.5,-145.75,2
201.75,360.75,-144.0,136.5,-186.75,10.75,33.5,-93.75,2
207.25,263.5,-150.5,121.25,-153.0,58.25,29.75,-52.5,2
275.5,102.75,-152.0,104.5,-124.5,101.0,12.5,-35.5,2
261.0,102.0,-152.0,87.25,-103.25,91.5,11.0,-30.25,2
308.5,116.25,-144.0,75.75,-99.5,81.5,13.75,12.75,2
451.25,154.25,-137.25,56.25,-77.5,66.75,7.0,69.25,2
511.5,167.75,-152.0,42.0,-67.25,96.0,12.75,72.75,2
478.0,32.0,-144.0,26.5,-46.0,125.75,-0.25,26.25,2
384.25,-46.0,-136.75,15.75,-34.5,86.25,8.0,14.0,2
264.5,189.75,-139.25,10.75,-17.75,80.0,5.25,27.0,2
115.75,220.75,-127.25,-7.0,11.5,76.75,2.0,2.0,2
-52.5,6.75,-122.25,-8.25,7.5,58.75,3.75,-73.25,2
-291.75,-23.25,-122.25,-14.75,-7.25,55.75,-2.25,-88.75,2
-805.75,-170.0,-111.0,-18.25,12.25,45.5,-3.25,-91.25,2
-799.0,-108.5,-111.75,-21.75,33.5,35.75,-13.25,-126.75,2
-7.75,-114.25,-104.5,-35.25,73.5,52.75,-14.0,-99.75,2
394.75,-196.0,-105.0,-36.5,92.0,61.25,-14.0,-64.5,2
723.0,-225.75,-84.25,-29.5,85.0,46.75,-21.25,-97.25,2
740.75,-207.0,-78.75,-23.0,80.5,45.25,-8.25,-45.75,2
408.5,68.25,-79.75,-39.0,69.75,52.5,-6.0,46.25,2
134.0,176.25,-61.25,-31.75,75.5,69.75,3.0,59.0,2
-243.25,209.0,-57.75,-21.75,88.25,89.0,5.5,92.75,2
-348.75,234.75,-39.0,-24.75,123.25,92.5,8.5,92.25,2
-628.5,96.75,-46.25,-33.25,156.25,60.75,3.75,134.0,2
-823.0,-54.25,-53.5,-34.5,165.5,10.25,4.5,169.75,2
-654.25,-94.5,-46.5,-38.0,128.25,-33.25,-0.25,159.75,2
-442.75,-165.25,-47.5,-43.25,98.0,-107.25,-3.0,167.75,2
-78.75,-210.5,-45.5,-46.5,122.0,-152.5,-2.5,75.0,2
436.25,-153.0,-55.0,-54.75,113.0,-135.75,-20.5,10.5,2
584.75,-42.5,-48.5,-67.5,107.5,-140.0,-11.5,-59.0,2
180.75,89.25,-37.5,-58.25,131.75,-97.5,-19.5,-161.5,2
187.0,145.0,-42.25,-57.25,131.5,-27.0,-16.75,-186.25,2
616.25,213.75,-27.75,-64.0,102.75,-21.75,-21.5,-107.0,2
638.0,239.75,-33.25,-56.75,103.25,0.75,-23.25,-90.25,2
915.0,247.75,-27.0,-57.25,128.5,0.5,-15.5,-117.75,2
1122.0,206.5,-15.5,-55.5,118.75,-9.0,-17.5,11.5,2
805.0,69.75,-26.0,-59.75,105.25,8.5,-12.75,67.75,2
390.0,23.5,-11.0,-49.0,129.5,15.75,-10.5,74.25,2
-3.25,43.5,-12.0,-41.5,151.25,34.75,3.0,89.0,2
-191.0,57.75,-8.0,-46.0,171.5,40.25,-7.75,45.25,2
-460.75,47.5,3.75,-39.0,182.75,54.25,-2.75,76.5,2
-632.5,36.5,4.75,-32.75,180.0,59.25,12.25,74.25,2
-1023.5,7.75,4.5,-30.75,204.75,61.0,10.0,48.5,2
-1251.0,-64.5,1.75,-25.75,214.0,69.0,13.0,64.25,2
-1102.25,-109.5,8.75,-24.5,219.25,70.25,22.0,53.75,2
-879.75,-95.0,13.75,-27.25,229.0,52.25,19.0,58.75,2
55.75,-100.25,23.25,-8.25,249.5,42.5,17.75,70.0,2
616.25,-75.25,20.25,-4.25,280.0,33.25,20.75,83.25,2
789.5,-9.25,21.75,-13.0,294.75,16.0,16.0,77.75,2
751.25,18.5,26.0,-15.0,297.5,42.25,15.75,39.0,2
719.0,22.75,27.5,-15.0,300.25,42.25,17.0,34.0,2
305.75,6.25,19.25,-10.0,302.75,30.5,32.0,28.5,2
-114.0,-7.0,19.5,-18.75,324.0,64.25,31.75,30.0,2
-338.5,-40.25,31.25,-21.0,311.0,94.0,25.5,40.5,2
-432.75,-58.0,29.5,-12.75,276.0,90.75,25.75,46.25,2
-356.5,-11.75,23.75,-13.75,254.0,58.5,27.0,43.25,2
-299.25,25.75,23.25,-8.5,223.25,14.25,14.75,48.0,2
-221.75,2.25,18.25,-10.0,223.0,15.5,-3.75,62.0,2
-129.0,-0.5,11.75,-17.5,238.25,55.25,4.25,51.25,2
-148.0,-9.75,14.5,-18.75,258.25,83.75,12.5,66.25,2
-264.5,-22.5,2.25,-31.75,278.75,102.25,5.5,62.25,2
-227.75,-30.25,-7.75,-40.25,289.75,105.0,3.25,66.5,2
-438.5,-56.0,7.5,-47.75,317.25,122.25,6.75,69.0,2
-931.75,-72.25,-6.75,-60.25,355.75,127.5,-7.75,64.5,2
-1206.0,-95.25,-25.75,-74.0,394.75,106.0,-5.0,94.0,2
-827.0,-76.0,-24.0,-72.25,431.25,124.75,-5.0,94.25,2
-379.25,-59.75,-46.75,-80.0,446.25,120.75,-3.75,91.75,2
220.75,-47.25,-51.25,-89.0,421.75,98.5,-6.25,85.75,2
849.75,-43.5,-69.75,-89.75,400.75,69.25,3.75,69.75,2
963.5,-50.0,-88.25,-100.0,374.25,28.75,16.25,56.75,2
969.0,-53.75,-77.75,-74.75,339.0,28.0,14.0,34.0,2
-424.5,-82.0,-73.75,-58.25,271.0,28.25,25.5,-1.25,2
-663.0,-109.25,-83.0,-64.5,167.75,34.0,25.75,-27.5,2
-71.25,-53.0,-89.25,-40.75,78.25,38.75,26.5,-52.0,2
687.75,67.75,-75.25,-19.0,12.75,27.0,22.75,-74.5,2
1455.5,81.0,-73.0,-14.0,-63.0,12.25,28.0,-89.5,2
1362.75,78.5,-83.25,5.25,-133.25,7.75,39.75,-100.5,2
1245.75,56.0,-75.25,18.75,-181.25,22.5,39.75,-125.0,2
1113.25,60.5,-71.0,34.25,-244.75,12.0,43.75,-185.5,2
593.5,138.25,-69.0,60.0,-319.5,9.75,53.75,-222.5,2
194.75,196.5,-63.75,88.0,-387.0,9.75,62.75,-256.25,2
-89.25,262.75,-63.5,109.75,-438.75,-1.75,61.5,-280.25,2
-162.5,256.75,-53.5,123.25,-478.75,-17.5,71.75,-308.5,2
-162.25,202.75,-43.5,135.5,-515.0,-32.5,77.75,-322.25,2
43.5,182.5,-24.0,156.25,-527.25,-23.0,92.25,-324.0,2
106.75,209.75,-0.5,171.25,-508.0,-13.0,101.0,-316.75,2
283.25,219.0,26.75,188.5,-444.0,-14.5,99.5,-336.0,2
110.0,196.75,78.25,216.25,-304.75,19.0,121.5,-378.5,2
-256.5,56.0,160.25,282.5,-44.75,78.5,152.75,-440.5,2
-764.0,-187.5,271.5,402.25,283.0,139.0,183.5,-541.25,2
-1219.0,-394.75,374.25,548.5,588.75,187.0,197.0,-524.0,2
-1758.75,-417.5,416.5,542.5,689.0,152.25,187.0,-467.75,2
-2304.25,-311.0,391.25,493.0,506.0,103.75,139.0,-388.75,2
-2382.0,-274.5,337.25,416.75,282.75,88.25,85.75,-276.5,2
-1617.25,-226.25,275.0,267.5,98.0,56.0,54.5,-149.25,2
-871.0,-178.25,230.0,122.25,-15.0,8.5,36.5,-7.5,2
-335.75,-145.0,182.0,42.25,-97.75,-23.0,6.75,78.5,2
-3.25,-72.5,124.75,-84.0,-173.75,-34.75,-5.5,142.25,2
-122.25,-22.25,104.0,-107.25,-186.25,-50.5,-18.5,181.0,2
-320.25,-22.0,83.75,-145.0,-230.0,-63.0,-31.5,207.0,2
-218.75,2.75,63.0,-198.5,-265.0,-85.5,-31.0,247.25,2
0.75,55.75,40.25,-219.0,-280.25,-81.0,-27.5,267.25,2
223.5,70.75,13.25,-262.75,-274.25,-64.5,-31.75,283.75,2
494.25,31.25,-0.75,-284.5,-274.0,-29.75,-41.25,300.5,2
468.25,-37.0,-15.25,-332.75,-311.75,2.25,-41.0,305.0,2
421.75,-12.5,-34.25,-332.5,-279.25,16.5,-37.0,291.0,2
687.5,55.5,-40.0,-282.5,-215.0,53.25,-27.0,264.75,2
972.0,117.5,-37.25,-279.0,-225.0,71.75,-34.5,271.0,2
1036.25,150.5,-53.5,-321.0,-251.0,17.5,-31.5,254.25,2
860.75,111.25,-50.5,-316.0,-204.25,-52.75,-26.0,240.75,2
468.5,84.5,-53.0,-327.25,-224.75,-73.25,-40.5,258.75,2
106.0,103.25,-72.25,-326.0,-195.75,-103.0,-30.0,242.75,2
-155.0,138.0,-71.75,-301.5,-149.5,-177.5,-23.5,247.0,2
-175.5,115.0,-69.25,-312.25,-110.25,-159.75,-10.75,222.5,2
-79.25,1.75,-72.0,-275.75,-41.75,-99.75,-4.0,198.75,2
58.75,-74.75,-88.0,-298.5,-67.75,-96.0,-12.25,187.75,2
63.25,-34.75,-70.25,-263.5,-12.5,-35.75,0.5,148.75,2
-149.75,102.5,-53.75,-214.5,-2.0,16.75,9.75,146.0,2
-354.0,156.25,-62.75,-205.25,12.5,-4.5,13.5,117.0,2
-589.25,85.75,-52.25,-182.25,33.25,-1.25,14.75,118.0,2
-463.25,32.5,-52.5,-177.5,28.75,11.75,26.75,92.5,2
-65.5,-14.25,-61.0,-150.0,47.5,7.5,33.25,78.25,2
306.0,8.25,-58.5,-161.75,18.5,11.75,26.25,78.0,2
519.5,11.25,-56.75,-158.0,23.0,31.25,34.0,45.75,2
436.0,-7.0,-61.5,-143.5,14.75,31.5,34.25,52.75,2
304.25,-15.0,-57.75,-145.25,-3.5,8.0,25.75,35.25,2
167.75,-20.5,-49.75,-131.5,-1.75,-1.25,27.75,22.5,2
-34.25,5.25,-52.25,-117.25,-1.5,7.5,25.5,8.0,2
-259.0,-10.25,-63.25,-104.75,0.75,16.0,21.25,11.75,2
-504.75,-5.5,-70.25,-108.75,-22.75,-24.5,15.25,25.25,2
-420.0,17.0,-64.75,-112.75,-27.5,-72.5,13.75,8.0,2
-238.75,39.75,-51.0,-92.5,32.75,-59.5,30.0,-12.25,2
-162.5,41.5,-47.75,-61.5,42.0,-16.0,21.25,-7.75,2
42.5,38.75,-57.5,-61.5,31.75,-4.25,11.5,-4.25,2
163.75,61.0,-56.0,-47.75,40.25,-15.5,11.0,2.0,2
340.5,68.5,-49.5,-38.25,36.75,-3.0,2.75,-0.25,2
359.75,66.0,-53.0,-40.75,48.0,1.25,18.5,-14.25,2
165.5,45.0,-50.0,-35.75,27.5,-8.5,18.25,-20.0,2
-74.5,30.0,-47.75,-17.25,8.5,-1.75,16.75,-31.25,2
-410.5,1.25,-48.0,-8.75,1.25,-1.75,20.5,-22.25,2
-694.75,-23.25,-45.0,-3.75,15.0,-19.25,15.0,-28.5,2
-472.5,-31.25,-36.25,3.5,19.5,-14.0,24.25,-15.75,2
227.5,-44.25,-27.0,13.5,46.25,17.0,13.75,-25.75,2
767.0,-26.0,-35.0,23.75,65.25,22.0,19.5,-37.75,2
1170.5,-10.5,-27.25,42.5,86.75,5.0,36.25,-10.5,2
951.5,-2.25,-15.25,80.75,127.25,24.25,37.25,-7.5,2
334.25,-52.0,-7.0,99.75,152.5,33.25,45.25,-25.0,2
116.25,-81.75,3.0,104.5,141.5,29.25,47.75,-45.0,2
13.0,-45.5,-6.25,97.5,117.0,44.5,50.5,-50.25,2
-173.25,-33.5,-0.5,100.5,134.75,61.25,54.0,-75.25,2
-129.0,-9.5,3.0,91.0,109.25,47.25,45.0,-79.75,2
-191.5,3.0,1.0,83.25,94.25,30.0,34.5,-96.5,2
-300.75,24.25,-10.25,79.75,70.75,10.0,21.75,-110.0,2
174.75,25.0,-24.0,59.5,49.25,-14.25,1.25,-63.5,2
466.0,9.0,-27.5,30.75,33.5,0.0,2.75,0.75,2
503.25,23.5,-29.0,8.5,-1.5,-11.5,-0.75,24.0,2
497.25,8.0,-30.0,8.25,-10.75,7.25,-9.25,36.5,2
224.75,20.75,-27.0,12.5,24.5,34.5,-5.0,25.0,2
-259.25,14.25,-2.75,50.5,116.25,53.75,3.5,-15.5,2
-1084.0,-1.25,10.75,69.5,142.25,73.5,9.75,4.75,2
-1348.0,21.25,-5.75,28.0,68.0,42.75,-13.0,42.25,2
-1019.25,32.0,-33.5,-14.5,-20.5,37.25,-26.5,101.0,2
-241.75,46.5,-45.0,-36.5,-75.75,47.75,-27.25,129.0,2
257.25,49.75,-45.25,-33.25,-60.75,56.25,-20.0,101.25,2
663.0,22.25,-34.25,1.0,-14.5,43.5,-4.25,91.75,2
763.5,23.5,-31.0,4.0,3.5,10.5,-5.5,123.0,2
782.0,43.5,-33.5,2.25,20.0,-20.0,-3.0,134.0,2
609.25,23.0,-31.5,10.75,25.0,-27.25,-9.0,128.75,2
312.5,8.25,-28.5,3.0,36.25,-1.0,-3.25,140.0,2
111.75,-26.0,-21.75,11.25,60.75,2.75,1.0,127.5,2
8.75,-50.0,-12.5,32.0,90.0,28.0,14.5,140.0,2
-117.25,-59.0,0.0,26.75,122.75,72.0,18.5,156.0,2
-242.25,-75.25,19.75,25.0,151.5,90.5,13.25,157.25,2
-357.75,-97.0,30.5,35.75,181.75,107.25,25.25,123.25,2
-490.5,-152.25,29.5,46.25,193.75,124.75,37.0,85.25,2
-470.0,-145.5,34.0,78.0,194.0,97.0,48.25,71.5,2
-354.25,-126.0,50.0,105.75,199.5,56.5,52.5,21.0,2
-156.75,-117.75,50.25,128.0,198.0,35.75,54.75,-11.25,2
-2.5,-87.25,39.0,153.5,210.5,-0.25,55.25,-50.0,2
95.75,-55.75,55.5,166.75,234.75,0.25,76.75,-100.75,2
43.0,-42.75,70.75,194.75,264.25,82.5,88.75,-123.5,2
-10.25,-41.0,86.25,245.5,315.0,154.25,100.0,-148.75,2
-49.0,-63.25,119.0,278.25,380.75,181.5,100.25,-172.0,2
-305.5,-80.25,143.25,303.0,446.25,200.5,91.0,-184.25,2
-583.5,-65.5,154.5,321.0,494.25,191.5,93.75,-179.25,2
-694.75,-63.0,168.5,334.75,514.25,197.25,98.25,-169.75,2
-808.25,-63.0,168.75,344.75,508.25,212.0,106.0,-137.0,2
-888.75,-83.25,153.5,323.0,468.5,191.0,77.0,-87.75,2
-865.0,-67.75,125.0,271.75,361.25,175.75,60.0,-12.0,2
-862.0,-76.0,93.75,194.5,230.75,129.0,30.75,63.0,2
-701.75,-108.75,45.75,99.25,86.75,42.25,-1.5,136.0,2
-174.5,-60.75,-4.25,-7.5,-86.25,-22.75,-13.0,233.5,2
492.5,14.75,-52.5,-106.5,-226.5,-67.5,-44.5,299.0,2
935.0,69.0,-90.25,-193.5,-350.0,-97.5,-67.5,380.0,2
1118.5,111.5,-121.0,-260.25,-477.5,-168.0,-86.5,452.5,2
1068.5,146.5,-155.5,-293.5,-539.5,-183.5,-94.5,483.5,2
805.0,159.25,-157.0,-307.5,-545.5,-139.5,-96.75,489.5,2
516.75,170.0,-156.25,-302.25,-518.25,-92.25,-92.5,473.0,2
245.75,140.75,-149.5,-278.5,-477.25,-64.25,-94.75,454.75,2
12.0,94.0,-138.5,-273.0,-442.25,-65.5,-105.75,464.75,2
-115.0,82.5,-132.5,-252.25,-380.75,-46.0,-98.0,482.25,2
182.75,63.5,-106.0,-220.25,-324.5,-31.25,-72.25,455.25,2
526.0,49.5,-84.0,-199.75,-261.25,-2.5,-59.0,403.25,2
665.25,19.5,-70.5,-184.0,-210.25,11.25,-46.75,349.25,2
611.0,-6.5,-47.5,-162.5,-164.0,6.25,-32.5,290.5,2
192.0,6.5,-35.75,-140.5,-110.0,-3.25,-27.25,257.0,2
-264.25,31.0,-20.0,-129.25,-89.75,-20.0,-14.75,225.5,2
-625.0,24.5,-7.25,-109.75,-64.0,-2.0,-10.75,192.75,2
-692.25,15.75,17.0,-90.0,-64.25,11.25,-3.75,171.25,2
-569.5,5.0,7.25,-83.5,-80.75,-19.75,11.75,153.25,2
-310.0,-11.25,-2.0,-75.75,-93.5,-10.5,15.5,156.75,2
78.75,-5.5,11.0,-53.75,-110.5,4.0,27.75,125.0,2
153.5,-2.25,4.25,-21.5,-101.75,3.75,40.25,105.25,2
78.25,-0.25,24.5,-9.5,-103.0,30.5,38.5,110.25,2
64.0,-18.75,25.25,-13.75,-89.5,27.75,28.0,90.25,2
27.5,-38.25,19.5,2.5,-92.5,52.25,41.5,81.75,2
-58.25,-45.0,24.75,21.75,-111.0,64.0,34.75,66.5,2
-93.25,-55.5,24.0,12.5,-115.25,55.5,30.75,82.75,2
-60.75,-45.5,30.0,9.75,-110.5,48.75,51.0,89.5,2
105.5,-40.5,43.5,13.75,-98.0,51.0,53.75,89.25,2
153.75,-55.5,40.75,-2.25,-111.25,36.5,54.5,101.75,2
0.75,-51.0,44.75,-7.75,-119.25,-14.25,53.25,99.25,2
-138.0,-42.75,56.25,-21.0,-134.0,-16.75,65.5,97.0,2
-388.0,-66.25,53.0,-19.25,-162.75,-3.25,66.75,83.0,2
-552.75,-69.25,53.75,-15.25,-174.5,24.75,61.0,63.5,2
-658.0,-70.5,62.75,-29.75,-202.0,27.25,60.25,48.5,2
-679.5,-74.25,59.25,-26.75,-211.5,1.5,60.5,28.25,2
-669.25,-72.25,49.0,-21.0,-214.0,-3.0,68.25,1.75,2
-643.75,-62.75,54.25,-14.75,-217.0,12.5,68.0,-17.25,2
-417.0,-41.0,33.0,-8.5,-231.25,-3.75,76.5,-41.5,2
-232.75,-42.25,19.5,3.25,-242.25,-33.75,71.0,-60.25,2
-165.75,-34.0,19.75,2.25,-241.25,19.5,73.5,-82.0,2
-194.25,-26.5,10.75,19.0,-248.75,32.5,69.5,-126.0,2
-325.0,-22.0,0.5,29.25,-257.0,32.5,71.25,-143.25,2
-391.5,0.75,3.25,21.25,-254.0,22.0,85.75,-151.5,2
-359.5,4.25,7.0,22.75,-240.25,19.5,77.0,-169.75,2
-306.25,6.0,-7.75,15.25,-251.0,17.5,84.0,-169.5,2
-256.25,8.25,-12.0,29.75,-254.0,-46.75,86.5,-189.0,2
-170.75,23.0,-23.5,30.5,-253.75,-79.75,81.0,-182.5,2
-64.5,26.5,-38.25,43.75,-254.25,-56.75,79.25,-145.75,2
139.25,-4.5,-40.5,51.75,-239.0,-29.0,81.5,-185.5,2
335.5,-30.5,-53.0,34.25,-228.5,-45.5,71.5,-191.25,2
480.25,-44.0,-70.25,52.5,-213.25,-23.75,81.25,-179.0,2
671.0,2.0,-72.5,59.75,-209.0,-5.75,79.5,-214.0,2
732.75,107.75,-100.0,51.0,-205.0,0.75,73.0,-211.25,2
665.0,158.5,-106.5,54.5,-198.0,41.5,82.5,-225.0,2
550.5,142.75,-111.0,46.75,-207.75,55.0,69.0,-266.25,2
448.0,164.25,-138.5,51.0,-218.5,71.5,73.75,-305.0,2
312.5,185.0,-158.75,64.5,-229.75,72.75,60.5,-331.75,2
242.5,180.25,-188.0,74.5,-259.0,44.0,59.25,-343.0,2
266.5,173.0,-189.25,95.75,-269.75,20.25,59.0,-370.5,2
312.75,152.0,-186.5,124.5,-264.0,-24.75,51.0,-378.5,2
392.25,117.0,-190.0,131.75,-252.75,-44.25,53.5,-408.75,2
432.25,95.5,-178.5,138.5,-228.5,-30.0,54.0,-421.75,2
459.5,81.0,-160.75,151.25,-176.0,10.5,57.5,-422.5,2
423.5,8.0,-128.0,151.0,-99.75,45.0,67.75,-439.25,2
324.25,-21.5,-79.5,176.25,32.0,54.25,98.0,-478.25,2
-5.75,-0.25,5.25,257.5,319.5,131.25,143.5,-601.75,2
-618.25,-144.5,156.25,456.5,814.25,222.25,200.25,-674.0,2
-898.0,-343.25,305.75,531.25,1048.25,306.5,222.75,-606.5,2
-942.0,-381.75,340.5,497.5,969.0,278.5,192.5,-527.5,2
-981.0,-321.0,283.75,440.25,729.0,201.75,153.25,-425.0,2
-923.0,-247.75,235.5,314.0,483.25,161.75,96.25,-245.5,2
-650.5,-143.5,162.5,129.0,280.75,85.25,58.25,-173.0,2
-525.75,-36.75,127.25,69.0,223.75,54.5,56.75,-67.75,2
-317.75,40.75,79.0,-44.25,95.0,7.75,19.75,-2.0,2
-105.25,75.75,45.5,-113.25,75.5,1.25,-8.25,53.5,2
71.0,92.75,28.5,-216.75,-20.25,-8.5,-33.5,136.75,2
248.5,170.75,-39.25,-347.75,-100.75,-34.5,-64.5,175.5,2
331.5,183.75,-58.75,-397.25,-74.75,-36.25,-80.0,224.5,2
352.25,137.5,-86.5,-487.5,-88.5,-54.0,-94.0,247.25,2
419.5,135.75,-94.0,-502.5,-26.75,-36.0,-93.25,268.0,2
584.0,76.0,-102.5,-525.0,-22.25,-5.75,-98.5,281.75,2
827.75,47.25,-131.5,-568.0,-28.0,-12.25,-109.75,337.75,2
1128.25,62.25,-153.75,-599.75,-59.25,-27.75,-120.25,374.0,2
1291.25,68.75,-175.5,-620.25,-51.75,10.5,-112.25,351.5,2
1240.25,47.0,-163.25,-579.25,1.0,-3.75,-95.5,322.0,2
1054.75,83.0,-142.0,-522.75,37.25,-21.75,-80.25,280.75,2
826.25,173.25,-133.0,-487.75,38.25,-33.75,-83.5,239.5,2
589.75,161.5,-135.25,-454.25,69.5,-82.75,-80.75,190.25,2
372.5,136.0,-127.0,-407.0,144.0,-64.5,-57.25,138.25,2
164.0,142.25,-113.0,-358.25,180.0,-8.5,-49.75,58.75,2
53.75,120.25,-99.75,-308.0,213.5,-10.75,-43.0,51.75,2
-44.25,101.25,-98.0,-290.25,183.25,-18.75,-44.5,129.75,2
-76.75,122.5,-99.25,-279.75,153.75,-20.5,-47.5,187.25,2
-24.25,99.0,-98.75,-258.5,135.5,-30.25,-55.0,202.75,2
-48.0,92.5,-95.5,-240.0,160.25,-12.5,-51.25,209.25,2
-67.75,125.75,-71.5,-220.0,243.25,3.0,-50.25,197.25,2
-188.25,97.25,-41.75,-185.0,366.0,23.75,-42.75,170.5,2
-315.5,15.5,-1.25,-148.75,481.75,53.5,-42.75,169.5,2
-430.0,-66.75,46.25,-108.75,584.25,69.5,-40.75,161.25,2
-556.75,-142.0,88.75,-90.0,685.5,84.75,-14.75,131.5,2
-601.25,-206.25,128.25,-69.25,746.75,103.0,-1.0,88.75,2
-605.25,-160.75,162.0,-36.25,805.5,126.5,18.75,85.5,2
-595.25,-124.0,186.5,-12.5,813.25,122.25,21.25,97.0,2
-634.25,-103.25,209.25,24.0,814.75,114.75,16.5,60.0,2
-663.75,-74.25,244.0,60.25,785.75,105.25,23.0,31.0,2
-729.75,-124.75,266.5,93.75,735.5,76.75,37.75,18.0,2
-666.25,-206.25,270.75,127.0,655.25,51.0,50.75,-8.5,2
-453.25,-196.75,264.75,177.75,521.0,49.5,63.5,-64.25,2
-336.25,-11.25,255.75,205.5,384.75,40.75,67.5,-133.75,2
-273.75,169.5,259.25,238.0,229.25,7.5,74.75,-202.5,2
-368.5,73.75,259.25,270.75,95.25,1.25,91.75,-296.75,2
-551.25,-87.25,255.0,286.75,-36.5,8.5,87.0,-365.75,2
-657.75,-158.75,219.5,324.5,-152.25,-13.25,101.25,-431.75,2
-667.5,-241.25,178.0,342.75,-194.5,-54.25,103.25,-451.75,2
-562.5,-228.5,147.0,345.5,-163.25,-44.25,104.0,-367.0,2
-355.0,-236.25,95.75,339.0,-88.5,-35.75,105.0,-285.75,2
-98.75,-173.25,55.25,322.25,12.0,-14.75,90.25,-256.0,2
131.25,158.5,22.25,295.0,101.0,46.0,92.0,-208.25,2
354.75,374.5,-10.5,276.0,142.25,65.0,79.0,-198.75,2
453.0,242.5,-40.25,250.25,167.0,82.5,64.25,-202.0,2
355.25,45.5,-68.25,217.0,210.75,108.5,49.0,-190.75,2
313.5,-72.75,-89.0,201.0,228.75,132.5,25.5,-168.0,2
250.25,-130.25,-105.0,178.75,255.5,150.0,6.75,-114.0,2
258.0,-26.75,-115.75,166.0,279.75,152.0,3.5,-65.75,2
376.25,209.25,-135.0,146.75,242.25,149.25,-3.75,40.75,2
329.0,261.0,-148.5,129.75,219.75,125.25,-17.5,80.25,2
258.0,161.5,-153.75,104.0,204.75,118.5,-18.5,55.75,2
213.5,219.5,-163.25,89.75,207.75,108.75,-26.0,67.75,2
222.25,278.25,-169.0,87.5,235.0,60.0,-25.5,46.0,2
223.5,5.75,-176.25,73.0,227.0,82.25,-23.5,24.25,2
92.5,-259.25,-180.25,65.25,206.25,114.0,-25.0,35.75,2
-45.75,-307.25,-184.5,39.25,190.0,95.75,-38.0,50.5,2
-129.25,-247.0,-182.25,24.25,159.25,89.0,-43.5,25.0,2
-217.75,-108.25,-181.75,21.75,149.25,57.5,-48.0,63.0,2
-286.25,-148.5,-176.25,3.75,165.0,60.0,-58.75,140.75,2
-256.0,-215.75,-159.0,-6.25,159.25,29.75,-58.75,100.5,2
-157.5,-152.5,-147.0,-8.5,152.25,-17.0,-62.5,78.5,2
-31.25,52.0,-135.75,-14.75,147.5,-3.5,-59.75,57.0,2
65.25,148.0,-122.5,-23.25,137.75,-2.5,-42.5,0.5,2
118.5,243.5,-108.25,-41.5,116.0,-19.0,-47.25,-17.75,2
140.25,501.25,-101.0,-45.5,102.0,-48.5,-46.0,23.75,2
151.75,228.75,-87.5,-42.25,102.25,-36.5,-32.5,95.5,2
152.5,-308.25,-72.75,-57.75,77.25,28.25,-25.75,98.5,2
134.0,-349.0,-71.5,-64.5,56.0,57.0,-11.25,91.5,2
99.75,-416.75,-65.0,-57.25,44.75,68.25,-2.75,98.5,2
3.0,-544.75,-62.5,-55.0,40.75,73.75,-9.25,103.0,2
-25.25,-489.25,-55.75,-66.75,44.25,69.0,-0.25,101.0,2
-43.5,-220.5,-45.25,-68.0,43.5,72.0,7.5,100.0,2
-66.0,118.0,-43.0,-72.25,30.5,45.0,13.25,100.0,2
16.0,300.75,-33.75,-57.0,6.25,21.5,37.0,112.5,2
68.25,660.25,-20.25,-53.75,-13.75,51.75,45.0,118.75,2
92.75,822.25,-17.5,-67.0,-28.75,46.25,47.0,95.5,2
106.0,268.0,-6.75,-58.25,-33.75,23.75,50.25,101.0,2
125.25,-75.5,-12.75,-72.0,-33.75,45.5,43.0,97.75,2
170.5,57.0,-8.0,-79.5,-35.75,40.0,30.0,82.75,2
185.25,31.0,1.75,-75.0,-45.75,41.25,34.75,74.75,2
192.25,-81.75,-4.75,-68.25,-70.25,50.75,31.0,79.5,2
200.5,-48.25,1.5,-63.25,-74.0,41.0,26.5,86.5,2
193.0,-67.5,6.5,-79.0,-66.5,31.25,30.75,87.75,2
105.75,-159.0,12.25,-81.25,-59.75,16.5,13.75,75.5,2
12.25,-179.0,6.75,-77.0,-50.0,-2.0,21.0,70.0,2
-62.75,-148.5,10.25,-79.5,-45.75,-5.5,26.5,87.75,2
-144.75,-62.0,17.75,-68.5,-48.5,7.5,19.75,80.25,2
-174.5,2.0,18.0,-68.25,-49.75,19.25,17.75,82.0,2
-162.0,69.5,29.25,-63.25,-44.0,25.25,28.5,95.75,2
-171.25,-52.0,23.25,-57.5,-61.5,7.25,24.75,100.75,2
-190.25,-129.75,18.75,-57.75,-72.25,-4.5,24.25,105.5,2
-184.0,-51.5,25.0,-59.0,-85.0,-9.75,20.0,117.5,2
-167.75,5.5,37.25,-55.75,-101.5,3.75,14.75,146.5,2
-165.75,-60.0,53.5,-43.5,-99.5,21.75,17.75,165.5,2
-142.25,-200.75,50.75,-40.5,-107.75,24.0,8.0,147.5,2
-122.75,-443.75,47.25,-40.0,-129.5,20.5,13.0,108.75,2
-81.25,-562.75,49.0,-43.75,-139.5,-7.5,10.5,75.0,2
39.0,-252.25,41.25,-46.75,-147.0,-3.5,1.0,69.5,2
90.0,-47.0,33.0,-43.75,-148.0,-2.5,2.5,49.5,2
94.5,-32.5,31.25,-38.25,-142.5,-8.25,14.75,3.75,2
86.0,106.5,25.0,-36.0,-156.5,28.75,17.0,15.0,2
77.25,197.0,15.75,-33.0,-153.5,55.0,19.5,98.5,2
214.75,179.75,13.25,-24.25,-163.25,33.75,14.25,182.5,2
332.75,358.0,6.25,-16.75,-169.75,12.25,27.0,189.5,2
282.25,530.25,3.25,-4.0,-169.25,7.25,38.0,148.0,2
109.75,628.75,15.5,-4.0,-175.5,-14.0,38.75,88.25,2
-246.25,629.0,9.25,-17.75,-190.0,-42.5,46.25,74.25,2
-286.25,525.5,-5.0,-10.75,-194.5,-46.75,31.5,86.5,2
95.5,595.5,-5.25,-22.0,-192.75,-70.75,25.5,102.25,2
224.75,538.0,-20.5,-25.25,-225.5,-75.0,8.25,67.5,2
140.25,338.75,-22.25,-28.25,-240.25,-14.5,15.0,-8.75,2
-2.5,108.25,-11.75,-32.75,-250.5,-22.25,15.5,-29.5,2
-92.25,-176.25,-18.75,-26.25,-251.75,-25.5,12.25,2.75,2
-154.5,-316.5,-21.0,-24.75,-253.25,-2.5,23.0,6.25,2
-186.25,-141.0,-22.75,-22.75,-257.75,-10.5,11.5,-60.75,2
-115.0,-61.0,-28.5,-30.25,-238.0,-6.25,4.5,-79.5,2
-136.5,-301.25,-41.0,-27.25,-247.25,-9.75,18.25,-26.75,2
-88.25,-475.5,-34.0,-18.5,-263.25,-19.25,10.75,70.5,2
-50.75,-554.25,-34.5,-16.0,-267.0,-20.0,4.75,82.5,2
-87.75,-310.0,-26.5,-30.0,-279.75,-23.0,21.0,57.0,2
-104.5,-148.75,-26.5,-23.5,-296.5,-31.75,24.75,43.0,2
-55.5,-90.0,-27.0,-16.75,-299.5,-43.25,33.5,-2.5,2
-100.75,-10.0,-10.0,-26.0,-285.5,-41.25,30.5,-3.75,2
-137.0,-431.5,-11.75,-18.0,-277.0,-32.75,34.5,-34.5,2
-21.0,-795.0,-10.25,-13.25,-269.25,-37.25,44.0,-78.75,2
99.75,-269.0,-21.5,-13.5,-251.0,-24.25,39.25,-29.75,2
153.25,285.0,-22.5,-13.5,-229.25,-24.25,37.5,16.0,2
130.5,201.25,-23.25,-9.75,-204.75,-13.75,40.75,23.5,2
87.0,72.0,-31.25,-9.75,-169.75,-5.5,32.25,81.75,2
-191.75,-333.75,-23.25,-12.5,-153.75,-13.25,33.25,77.0,2
-435.0,-316.5,-24.75,-21.25,-147.25,1.25,29.0,51.0,2
-329.75,69.0,-18.5,-18.75,-135.75,1.25,14.0,51.25,2
-7.75,58.0,-21.75,-15.5,-102.5,-14.0,21.0,33.5,2
289.75,116.25,-13.5,-11.25,-70.5,-43.75,34.25,-5.5,2
397.25,200.75,-5.5,-23.0,-64.0,-26.25,27.0,-30.0,2
313.75,272.25,-12.75,-22.0,-45.0,28.0,26.75,-68.25,2
-100.5,261.25,-6.25,-0.75,-43.25,48.75,45.25,-118.25,2
-753.5,194.25,-0.25,-3.5,-35.5,49.5,49.25,-42.0,2
-682.0,138.5,-3.25,0.5,-50.5,29.25,40.25,19.75,2
-24.0,59.25,-3.25,3.0,-57.5,24.75,36.5,6.25,2
292.0,-8.5,1.0,-1.25,-47.25,17.5,33.0,22.0,2
558.5,-173.75,-2.25,-11.75,-38.0,-51.75,36.5,29.25,2
469.0,-186.75,0.75,-14.25,-21.25,-157.0,46.0,31.5,2
309.25,-4.0,8.25,-13.75,-22.25,-183.5,47.25,21.5,2
163.0,13.5,0.25,-17.5,-39.0,-66.5,49.25,10.25,2
-47.25,35.25,-0.75,-15.25,-43.0,-27.0,29.5,26.0,2
-57.25,91.25,-5.75,-34.0,-30.25,-52.0,40.25,3.5,2
-112.0,29.25,0.25,-17.25,-12.5,-11.25,42.5,-3.25,2
-75.25,34.0,-3.0,-15.5,3.5,-1.5,24.0,7.75,2
-107.75,42.75,-0.5,-22.25,-2.75,11.5,37.75,-17.75,2
-134.5,55.0,8.25,-16.5,-2.25,39.25,37.25,-16.25,2
-418.0,46.75,3.75,-30.0,6.5,43.5,33.25,5.75,2
-1005.5,32.0,9.75,-26.5,28.25,32.5,28.5,8.25,2
-926.75,62.0,18.5,-29.5,51.0,16.0,27.5,17.75,2
-161.0,97.5,16.5,-33.5,52.25,25.0,22.75,39.75,2
318.0,114.0,-1.75,-34.25,62.5,33.5,32.5,66.25,2
772.25,67.5,9.25,-40.75,73.5,50.75,30.0,62.0,2
661.25,57.25,7.75,-44.75,91.0,72.0,30.0,58.75,2
241.25,25.5,-17.75,-47.5,100.25,76.75,24.5,81.0,2
310.5,-16.0,-19.5,-61.0,130.25,103.75,15.75,100.5,2
286.75,-72.25,-20.75,-53.75,193.5,127.25,26.25,95.5,2
363.0,-140.25,-29.75,-62.75,244.25,121.5,26.25,85.5,2
450.0,-131.75,-44.75,-65.75,316.0,105.5,34.25,76.25,2
442.5,-101.5,-51.5,-57.0,357.75,103.25,33.5,50.0,2
220.0,-71.0,-59.0,-57.25,355.5,115.5,48.5,46.25,2
-89.0,-41.25,-62.0,-46.0,368.75,105.5,55.25,36.25,2
-63.0,-22.25,-59.25,-42.5,359.5,92.25,46.0,9.75,2
-678.25,-4.75,-58.75,-28.25,373.0,64.75,61.25,4.0,2
-792.5,38.25,-50.25,-25.75,404.25,62.5,65.75,-0.75,2
-827.5,53.25,-65.5,-8.75,413.75,48.0,67.75,-5.25,2
703.5,38.5,-60.25,3.25,389.5,5.5,66.75,-15.25,2
1122.75,34.25,-64.75,11.25,345.25,-2.75,71.75,-35.25,2
1154.5,36.75,-80.25,14.5,300.75,11.75,88.5,-45.5,2
732.75,53.25,-77.5,20.25,226.5,34.0,84.5,-69.5,2
-451.5,93.25,-87.5,32.5,158.0,26.25,84.0,-106.25,2
-772.25,130.75,-88.25,47.75,111.5,-2.75,83.75,-160.5,2
-761.75,124.0,-91.5,69.5,74.0,-14.0,50.25,-185.25,2
-100.25,120.0,-96.0,75.5,1.25,-48.5,37.0,-217.5,2
1239.25,104.25,-101.75,110.0,-95.5,-78.25,51.75,-259.25,2
1243.0,122.5,-95.5,143.75,-169.75,-30.5,56.0,-268.5,2
1223.5,172.0,-83.5,167.0,-210.5,-26.0,73.75,-308.5,2
1169.5,179.5,-76.0,203.5,-206.75,-73.75,91.25,-360.25,2
985.0,118.5,-8.75,267.75,-73.75,-24.5,131.0,-465.25,2
-902.0,-15.25,130.75,421.75,332.0,118.75,198.5,-522.25,2
-2134.0,-190.75,317.25,628.0,833.5,253.75,258.25,-480.5,2
-2028.25,-314.75,421.5,567.5,942.25,271.0,236.25,-450.0,2
-1243.75,-281.5,386.75,491.25,697.0,195.75,183.25,-341.5,2
-647.25,-210.75,322.0,396.0,400.25,114.75,133.25,-151.5,2
-182.5,-163.25,254.75,168.75,191.0,68.25,86.5,-62.0,2
-453.75,-122.0,215.0,95.0,67.5,45.0,54.25,26.25,2
-900.0,-110.5,179.5,23.25,-48.5,7.0,24.0,107.0,2
-724.5,-60.75,124.5,-129.5,-181.75,-16.25,0.0,172.5,2
-674.25,-30.0,77.5,-237.75,-278.25,-25.25,-40.25,316.5,2
-170.0,42.5,8.5,-454.5,-497.0,-78.5,-84.25,460.0,2
384.5,159.75,-93.5,-686.25,-666.5,-160.25,-152.0,671.5,2
616.25,271.75,-208.0,-839.5,-596.25,-187.75,-170.0,703.0,2
318.75,218.75,-140.0,-624.25,-192.5,-56.25,-77.5,327.25,2
-536.25,-3.5,85.75,-124.75,409.75,117.0,9.75,29.75,2
-1134.25,-88.75,167.0,144.75,598.5,159.5,14.5,32.0,2
-1275.0,-69.75,137.0,141.0,343.75,141.25,14.75,72.25,2
-1000.75,-13.5,88.25,-50.75,95.0,86.0,-15.75,189.5,2
-605.25,78.0,2.5,-246.5,-166.25,45.5,-55.0,288.25,2
-77.25,129.75,-59.5,-408.5,-396.25,-12.0,-86.25,401.0,2
413.5,159.5,-144.5,-553.75,-584.75,-84.5,-133.25,480.0,2
885.25,171.25,-176.75,-570.0,-641.25,-125.0,-150.5,470.5,2
1103.75,202.5,-183.75,-580.25,-624.25,-176.75,-157.75,504.0,2
1289.25,228.25,-210.25,-558.0,-576.0,-187.5,-150.75,508.75,2
1259.5,206.25,-206.75,-515.5,-500.25,-147.0,-151.75,498.0,2
1096.75,170.75,-185.0,-480.75,-422.75,-87.75,-149.0,476.25,2
967.75,133.5,-147.0,-426.0,-275.5,-80.25,-130.25,444.25,2
687.5,63.25,-101.25,-364.25,-149.0,-35.0,-114.75,378.75,2
359.25,19.25,-57.0,-294.75,-20.0,0.0,-82.0,291.5,2
-30.25,1.75,-29.0,-213.75,76.5,17.25,-59.5,211.5,2
-212.25,-19.75,-6.0,-124.0,142.25,47.25,-41.75,139.75,2
-285.25,-35.5,-1.0,-64.75,198.0,46.25,-5.75,39.75,2
-357.5,-63.0,12.0,20.25,202.25,63.25,14.75,-58.25,2
-963.25,-93.75,12.75,77.5,207.75,58.0,38.5,-126.5,2
-1261.5,-102.75,12.5,122.0,202.5,64.5,57.0,-209.25,2
-1287.0,-88.0,35.75,177.0,236.0,84.5,80.75,-288.25,2
-380.25,-92.25,48.75,219.25,285.25,117.25,89.75,-360.5,2
404.5,-124.25,65.0,274.5,343.75,141.25,99.5,-385.75,2
260.0,-166.5,89.5,305.25,400.75,137.5,124.75,-400.25,2
247.0,-176.0,112.25,302.25,401.25,144.25,104.0,-367.0,2
322.75,-157.5,102.25,290.75,376.0,133.25,88.5,-335.0,2
-9.0,-124.75,90.75,281.0,350.75,106.25,90.0,-297.25,2
-311.5,-101.0,75.25,249.25,294.75,83.75,73.5,-239.5,2
-298.25,-87.5,59.5,223.25,250.0,50.25,60.5,-219.25,2
-279.75,-74.0,34.5,176.75,183.0,-20.75,37.0,-158.25,2
-147.5,-65.75,3.75,127.25,131.0,-16.0,17.75,-98.0,2
-68.25,-40.25,-7.5,81.75,73.75,13.75,2.75,-39.0,2
-164.25,-17.25,-35.0,33.75,39.0,-10.75,2.75,-4.75,2
-476.5,-9.75,-31.25,29.5,67.5,3.0,4.25,8.0,2
-567.25,-9.0,-25.5,8.75,61.5,24.25,-2.75,18.0,2
-470.25,-7.5,-14.5,11.75,99.25,29.25,18.25,10.0,2
-466.5,2.0,-3.75,23.75,101.75,30.75,20.5,1.75,2
-328.75,-23.0,-9.5,19.75,99.0,44.5,20.0,-24.75,2
-593.25,-43.0,-6.5,24.75,96.0,57.25,28.5,-42.75,2
-871.5,-55.75,-18.75,21.5,87.25,52.0,27.25,-89.0,2
-525.0,-49.0,-6.0,58.5,90.0,43.75,33.75,-149.5,2
-192.25,-39.5,-9.5,85.0,87.75,42.5,49.25,-199.5,2
145.75,-28.75,-6.75,87.25,102.25,59.25,69.0,-230.0,2
1018.75,-23.5,-7.5,110.0,107.75,75.75,70.0,-284.75,2
1200.5,-20.75,-9.5,144.0,134.0,92.75,82.25,-311.0,2
1030.0,-14.0,18.0,148.5,133.25,71.25,79.75,-278.75,2
889.75,-22.75,23.0,142.25,135.5,74.25,67.0,-257.0,2
377.75,-12.0,23.5,146.25,173.25,58.5,74.75,-233.75,2
-51.0,-12.5,16.25,126.0,146.75,24.25,62.75,-203.0,2
-444.0,-9.5,10.0,88.0,85.0,35.75,39.75,-166.75,2
-364.0,4.25,-9.5,49.0,27.0,17.75,21.5,-121.25,2
-307.0,38.75,-25.25,11.5,-28.75,4.0,13.5,-45.75,2
-294.5,49.5,-25.75,-14.0,-48.75,22.5,14.0,-19.0,2
-195.5,30.0,-32.0,-45.25,-99.0,-9.25,-0.75,-44.5,2
-105.0,33.75,-42.0,-64.0,-107.5,-26.75,-16.75,-57.75,2
-2.75,47.25,-51.0,-65.25,-107.75,-68.75,-15.25,-40.75,2
237.0,53.0,-37.0,-79.0,-97.25,-92.25,-8.0,10.5,2
408.25,36.0,-35.75,-80.25,-80.5,-27.75,-3.0,-1.25,2
396.5,26.25,-31.75,-68.25,-81.25,-27.25,-0.5,-38.75,2
303.75,6.25,-27.25,-61.0,-66.5,-31.25,13.0,-44.5,2
3.75,-12.75,-26.0,-44.25,-81.25,-26.75,23.25,-27.25,2
-260.75,-9.0,-33.0,-29.75,-76.0,-25.25,10.25,10.25,2
-480.5,-11.0,-33.75,-40.75,-49.75,-18.25,8.0,20.5,2
-607.75,-41.5,-17.75,-50.0,-39.0,-35.25,9.5,31.25,2
-706.5,-58.0,-11.75,-40.75,-30.0,-11.0,10.25,23.5,2
-825.75,-54.25,-6.5,-30.25,-27.25,15.5,20.75,38.75,2
-859.25,-63.0,-2.0,-51.0,1.5,16.75,31.75,72.75,2
-799.25,-47.0,15.0,-68.5,31.75,34.5,29.25,83.25,2
-424.5,-40.75,20.75,-65.25,33.75,34.75,15.75,79.75,2
75.75,-33.75,11.0,-77.5,32.0,25.75,17.0,61.0,2
472.75,-17.75,22.0,-80.0,31.5,26.75,13.25,54.75,2
671.0,-12.5,13.75,-73.25,42.5,27.5,19.5,64.5,2
662.25,2.25,18.75,-79.5,76.25,20.25,26.0,91.25,2
643.25,0.25,31.75,-85.5,97.75,14.25,23.25,106.0,2
540.25,-6.0,31.0,-82.25,92.0,-5.25,26.0,101.0,2
439.25,-2.5,34.0,-76.75,81.75,-37.75,29.5,94.75,2
291.5,-17.0,40.5,-83.0,78.25,-18.75,29.0,93.5,2
109.0,-32.0,52.75,-69.5,68.5,-2.0,30.25,89.25,2
-16.75,-30.25,37.25,-54.25,54.75,-10.5,23.0,62.0,2
-177.5,-13.0,37.5,-50.75,60.0,10.0,19.0,47.5,2
-307.5,-10.75,54.0,-45.75,62.5,21.25,17.5,46.25,2
-405.25,-18.5,45.25,-42.5,51.75,1.75,22.5,53.5,2
-440.5,-24.25,39.5,-34.0,31.25,-2.0,20.75,49.75,2
-427.5,-36.75,39.5,-31.25,-10.5,26.5,6.75,30.25,2
-380.0,-28.75,36.5,-25.0,-35.5,25.75,23.5,17.0,2
-415.0,-19.75,22.25,-14.5,-37.0,6.25,16.5,-3.0,2
-686.25,-11.25,18.5,-8.25,-59.5,14.5,7.25,-18.5,2
-812.5,7.75,9.5,2.75,-86.5,3.25,18.75,-19.0,2
-248.25,17.75,-1.75,17.5,-107.75,4.0,12.0,-17.25,2
268.75,25.5,-14.5,26.25,-115.75,21.5,10.5,-32.5,2
465.0,26.0,-36.25,30.25,-112.5,15.75,15.0,-21.0,2
409.75,34.0,-39.5,33.5,-118.0,7.0,12.25,-1.0,2
-887.25,36.25,-45.0,36.75,-109.0,19.25,19.5,-5.25,2
-903.75,11.75,-63.75,37.0,-92.0,34.0,12.25,-0.25,2
285.25,8.75,-63.25,32.75,-82.25,18.5,-1.25,-11.75,2
1034.75,36.0,-53.0,33.0,-68.0,15.0,9.5,-4.75,2
1023.75,58.0,-57.75,18.0,-46.25,32.0,16.0,10.75,2
991.25,81.25,-62.5,19.75,-39.5,48.75,27.75,26.5,2
643.5,107.5,-62.75,15.75,-40.5,47.0,31.5,34.75,2
352.5,111.5,-55.0,11.75,-27.5,27.0,25.5,36.75,2
-158.5,106.25,-46.75,14.25,-13.25,22.75,28.0,64.5,2
-296.75,63.0,-51.5,-4.25,-14.25,2.0,31.0,81.75,2
-63.75,17.0,-62.25,-4.75,-13.0,-12.25,14.25,92.0,2
323.0,21.25,-55.75,-4.0,-19.5,-8.5,5.5,97.25,2
492.25,30.5,-72.0,-4.25,-31.5,-9.0,0.5,105.0,2
403.75,37.5,-73.25,-3.25,-26.5,-1.0,-5.5,109.75,2
266.25,36.25,-70.25,-1.25,-40.5,10.5,-6.75,121.25,2
97.75,25.5,-80.75,-5.0,-41.5,37.0,-2.0,140.25,2
14.5,20.25,-77.25,6.0,-47.0,46.5,2.5,134.5,2
-249.75,37.5,-92.0,16.25,-36.0,91.0,-10.25,141.0,2
-344.5,42.5,-90.75,12.0,-30.5,126.0,-6.75,140.0,2
-173.75,35.25,-106.25,11.5,-28.5,76.25,-7.75,136.5,2
-68.5,51.0,-110.5,7.25,-31.0,61.0,-14.5,132.0,2
-217.75,43.75,-89.5,15.5,-39.0,63.75,-15.0,148.5,2
65.25,22.25,-85.25,14.25,-22.75,58.0,-6.0,170.25,2
468.75,26.0,-67.5,9.0,-39.0,18.5,7.75,179.0,2
558.5,22.25,-53.75,8.75,-40.75,-25.25,3.25,188.75,2
569.0,14.25,-53.25,5.0,-30.5,-18.75,16.0,193.0,2
264.5,-3.25,-31.0,0.5,-15.0,-35.5,16.5,195.75,2
-143.5,-11.75,-7.0,-9.0,6.25,-9.5,0.25,196.5,2
-441.25,-12.75,8.0,-4.25,-5.0,24.0,5.5,210.25,2
-629.0,-10.75,26.25,-14.5,-4.0,-0.75,-5.5,216.25,2
-693.5,13.25,34.75,-16.25,-16.0,17.0,3.75,222.0,2
-596.5,6.5,48.0,-16.25,-37.0,25.0,7.25,224.75,2
-395.5,-9.5,48.5,-25.5,-44.75,26.0,-1.5,227.75,2
-204.75,-15.75,64.0,-15.0,-61.25,28.25,5.25,227.25,2
-84.0,-32.0,79.25,-14.5,-108.5,11.5,3.75,207.75,2
-114.25,-16.0,87.75,-13.75,-156.0,2.0,2.75,194.0,2
-160.25,-36.75,104.25,-2.75,-229.25,-18.0,7.25,168.5,2
-270.0,-53.25,116.0,3.75,-276.75,-41.5,24.0,136.0,2
-348.25,-19.75,110.5,19.5,-293.25,-49.5,33.75,112.25,2
-369.5,18.25,122.0,36.5,-342.0,-37.0,45.0,92.25,2
-553.0,57.75,113.25,37.75,-356.0,-57.25,47.75,49.5,2
-625.0,87.0,102.75,40.25,-353.5,-72.5,47.75,17.75,2
-311.75,107.75,101.0,29.75,-327.0,-72.75,55.0,15.25,2
-29.25,111.0,73.75,23.75,-272.5,-62.0,46.5,21.75,2
161.75,108.0,51.5,17.25,-217.0,-45.0,24.25,39.0,2
341.75,100.75,37.0,-1.5,-142.25,-50.25,15.0,58.0,2
342.25,57.75,34.0,-22.0,-91.25,-18.25,18.0,75.0,2
303.25,15.5,4.0,-38.75,-40.25,16.0,-6.0,75.0,2
190.75,-16.5,-11.0,-46.25,-1.25,12.75,-2.25,80.5,2
70.75,-41.5,-16.0,-60.5,-2.5,38.0,-4.75,94.5,2
-10.75,-52.75,-34.25,-77.25,-10.5,42.5,-4.25,98.5,2
76.5,-55.25,-36.5,-82.5,-3.75,33.5,5.0,89.25,2
299.25,-53.25,-55.75,-78.5,3.5,43.75,2.25,91.75,2
471.25,-53.5,-64.75,-78.25,16.5,39.25,15.0,105.5,2
581.0,-34.0,-63.25,-73.0,32.5,23.75,16.5,100.0,2
587.25,-22.0,-63.25,-73.5,42.75,35.25,12.5,96.5,2
495.25,-17.25,-67.0,-83.5,75.75,58.75,21.0,111.25,2
362.25,-22.5,-75.0,-63.0,78.0,61.0,25.25,112.0,2
211.75,-20.25,-64.75,-63.25,72.0,72.75,34.0,92.25,2
5.25,5.25,-61.5,-66.25,41.5,67.5,27.5,88.5,2
-204.75,4.0,-65.0,-56.0,17.75,56.5,28.0,73.25,2
-317.0,-11.25,-63.5,-60.25,29.0,64.25,46.25,70.25,2
-263.25,-12.5,-64.75,-58.0,0.75,41.5,50.25,73.5,2
-162.0,17.5,-59.75,-50.25,-20.25,23.5,51.75,54.25,2
21.0,45.5,-56.5,-42.5,-29.0,51.25,49.25,38.0,2
88.5,50.0,-59.0,-38.0,-32.75,27.0,37.0,25.75,2
-22.25,-21.25,-74.0,-42.25,-33.0,4.75,32.25,10.5,2
-113.25,-60.25,-72.5,-44.25,-29.0,12.5,33.5,-6.25,2
-87.0,-65.75,-74.0,-42.25,-33.75,-49.5,27.25,-31.0,2
183.25,-72.0,-88.75,-38.5,-30.0,-27.75,20.5,-37.25,2
539.5,-59.0,-87.75,-30.25,-52.25,26.25,30.5,-23.25,2
721.75,-80.5,-85.75,-22.25,-60.0,31.25,37.25,-35.75,2
734.0,-85.25,-75.0,-17.5,-69.5,65.5,35.75,-37.5,2
565.0,-84.0,-74.75,-21.5,-75.25,75.25,34.75,-35.5,2
293.25,-57.75,-62.0,-14.25,-53.75,77.75,36.25,-54.5,2
8.0,-38.0,-59.5,-15.75,-44.25,71.25,36.25,-59.5,2
-376.0,-31.5,-65.5,-20.0,-29.75,90.25,41.75,-60.0,2
-512.25,-29.75,-56.25,-21.0,-27.5,86.75,45.0,-58.0,2
-447.5,-52.25,-53.25,-22.25,-42.5,68.75,55.75,-79.75,2
-339.5,-25.0,-41.0,-15.5,-42.0,49.75,66.5,-70.0,2
-111.25,-13.75,-47.25,-22.0,-56.75,7.25,53.75,-56.5,2
54.0,-35.25,-48.25,-20.5,-47.5,3.25,55.0,-68.0,2
18.25,-34.5,-33.75,-22.75,-27.25,13.5,47.75,-46.5,2
-151.75,-25.75,-34.75,-36.0,-16.25,36.75,54.75,-43.75,2
-281.75,-10.0,-30.25,-24.25,-5.75,88.0,48.5,-44.25,2
-471.75,-9.25,-12.25,-12.0,2.5,94.75,38.75,-45.25,2
-712.0,-2.5,-12.0,-10.25,19.5,83.0,51.75,-47.5,2
-924.75,11.5,-14.25,-10.75,36.0,61.25,39.5,-52.0,2
-880.0,9.0,-3.0,-9.25,75.0,38.25,37.5,-67.25,2
-566.5,3.0,-0.75,-7.5,92.5,47.5,40.25,-76.25,2
-95.5,37.0,-3.75,-2.25,79.75,16.0,46.25,-73.75,2
432.5,93.5,-3.25,2.5,79.25,-34.0,46.0,-75.25,2
659.5,92.0,4.5,-3.25,71.0,-4.5,43.0,-70.5,2
741.0,55.75,9.75,-8.75,76.25,8.25,43.25,-52.0,2
786.75,42.75,7.5,-13.75,83.0,-28.25,57.75,-55.25,2
718.0,59.5,21.0,-26.75,103.0,35.0,55.75,-64.5,2
686.0,77.5,25.0,-32.25,113.25,47.0,46.0,-72.5,2
597.5,56.5,28.0,-20.0,102.0,52.75,49.75,-70.25,2
450.0,20.5,38.0,-17.75,89.25,73.0,51.75,-80.25,2
234.75,8.75,37.25,-9.5,77.0,75.5,50.75,-89.0,2
-13.0,23.5,33.75,-8.75,60.5,77.5,40.0,-89.25,2
-210.5,15.5,31.25,-13.5,42.5,73.5,40.25,-108.0,2
-308.0,11.25,26.0,-0.25,32.75,79.0,32.75,-98.75,2
-408.25,-17.25,30.0,1.0,6.25,61.0,39.0,-90.25,2
-499.75,-99.5,42.0,-1.0,-6.75,56.0,41.75,-97.75,2
-538.0,-145.25,42.5,-10.75,4.25,64.25,30.75,-54.5,2
-549.25,-214.5,30.25,-4.0,46.5,102.0,27.75,-25.75,2
-516.0,-223.25,26.5,2.75,80.25,108.75,30.0,-26.0,2
-532.75,-140.75,15.0,-7.25,81.25,83.5,36.25,-47.0,2
-554.0,-112.0,9.5,-6.25,86.75,62.25,22.25,-47.5,2
-533.0,-112.75,11.75,-19.25,97.5,52.25,27.0,-41.5,2
-428.25,-145.5,10.75,-4.5,116.25,27.25,22.25,-60.75,2
-281.5,-158.5,19.25,-12.0,190.0,57.75,3.5,-43.5,2
-108.25,-105.5,13.0,-35.25,306.5,105.0,7.0,-13.5,2
43.75,-120.75,5.0,-53.5,476.5,118.0,13.0,36.75,2
70.25,-207.5,16.75,-41.5,686.75,188.0,17.25,79.75,2
21.0,-314.25,33.0,-11.5,764.75,271.75,15.75,111.75,2
-142.75,-509.75,59.5,26.5,715.25,284.0,28.0,63.5,2
-210.0,-527.25,55.5,65.0,646.0,185.5,19.5,-27.75,2
-58.5,-411.5,19.0,22.0,520.5,113.0,-1.5,-57.25,2
100.5,-126.0,0.5,-11.5,215.75,46.5,-7.75,-114.0,2
279.5,219.5,-12.5,-28.0,-95.5,-48.25,-10.25,-173.75,2
485.25,274.0,-32.25,-55.25,-397.75,-118.75,2.75,-252.25,2
576.25,284.25,-40.0,-45.75,-646.5,-193.75,-1.25,-333.25,2
598.5,439.25,-43.75,-12.5,-581.75,-282.5,-1.5,-427.25,2
517.0,589.5,-44.0,12.0,-482.25,-325.5,2.0,-493.25,2
328.75,712.25,-49.0,-0.75,-435.5,-294.5,-3.5,-487.75,2
175.5,813.5,-56.5,-5.0,-397.0,-257.75,-11.75,-455.0,2
111.0,712.0,-47.0,-9.25,-287.75,-182.5,-11.0,-383.75,2
79.25,512.5,-45.0,-17.0,-186.5,-116.75,-12.25,-330.0,2
34.5,342.0,-41.0,-9.0,-90.0,-82.5,-9.75,-290.75,2
-16.75,266.5,-37.75,-20.25,-30.5,-59.0,-16.25,-244.0,2
-135.5,281.5,-39.25,-25.25,62.25,-44.75,-13.0,-195.25,2
-250.5,166.0,-34.75,-33.5,137.25,-21.0,-5.5,-141.5,2
-230.25,39.0,-28.0,-28.0,213.25,17.25,-3.75,-101.0,2
-51.0,-0.75,-17.75,-10.0,284.25,51.75,5.75,-56.5,2
170.25,89.5,-19.75,-16.75,337.0,57.75,-7.0,-20.5,2
258.5,144.75,-24.75,-17.0,371.25,63.25,-4.0,15.5,2
219.25,86.0,-19.0,-20.25,397.75,75.25,-9.25,28.25,2
109.5,29.75,-8.75,-12.75,429.25,90.0,-1.75,32.25,2
-82.25,-157.25,-2.0,-16.0,441.5,92.25,1.0,38.25,2
-299.5,-261.5,-3.75,-25.5,463.0,92.25,-8.5,44.5,2
-496.25,-104.5,0.0,-6.5,482.75,87.5,8.75,54.25,2
-713.5,25.5,-12.0,-22.5,524.0,99.75,3.25,55.5,2
-791.25,-3.0,-15.75,-24.0,562.75,89.25,-0.75,69.75,2
-534.0,-53.25,1.5,-21.25,586.25,41.0,4.5,96.0,2
-34.25,-75.0,-8.0,-18.25,592.75,44.5,1.0,122.5,2
395.5,128.75,-11.0,-18.75,606.75,82.75,3.0,138.25,2
611.5,275.25,-1.25,-19.25,616.25,106.5,-10.5,134.5,2
589.75,90.25,3.25,-7.0,582.5,109.75,-11.75,143.75,2
339.25,29.75,8.0,-9.75,565.5,115.0,-1.0,154.25,2
141.0,-145.25,6.5,-9.0,534.75,118.75,-4.75,159.5,2
76.75,-286.0,15.25,-21.0,479.75,108.75,5.25,154.75,2
30.25,-251.5,19.0,-18.0,414.0,118.0,3.5,139.75,2
-4.0,-351.75,10.75,-17.75,360.75,89.25,-2.5,148.0,2
39.75,-438.0,4.25,-26.75,314.75,27.0,4.25,145.5,2
162.25,-574.75,5.5,-26.5,274.25,53.0,4.75,137.25,2
259.5,-514.75,14.25,-29.25,239.5,62.0,8.25,134.5,2
199.0,-209.25,16.25,-21.0,204.5,34.5,1.5,118.25,2
49.0,81.25,17.25,-30.25,140.5,38.0,5.0,121.75,2
-64.25,242.25,22.5,-25.0,83.0,63.75,13.25,124.25,2
-205.25,164.0,16.0,-22.5,31.75,92.5,18.25,129.75,2
-222.25,50.0,15.0,-26.0,-10.5,67.5,35.25,126.5,2
-196.0,41.5,13.75,-19.25,-14.75,98.5,23.75,124.0,2
-166.5,-38.0,5.75,-28.0,-20.5,103.5,14.5,122.25,2
-82.0,-139.25,7.5,-23.0,-39.75,67.0,16.75,115.5,2
-72.5,-221.75,12.25,-16.0,-49.25,73.5,14.75,128.0,2
-157.5,-277.75,24.5,-7.25,-58.5,44.25,26.25,123.0,2
-233.25,40.5,26.0,-9.25,-76.0,-8.5,31.5,120.25,2
-227.5,490.25,12.25,-20.25,-104.25,-5.75,19.75,138.0,2
-248.5,296.5,7.0,-15.25,-120.0,-18.5,18.0,154.75,2
-250.0,47.75,5.0,-29.5,-144.25,-106.25,11.0,141.5,2
-151.75,113.25,9.25,-26.0,-165.75,-76.75,5.75,120.0,2
23.25,-78.5,-2.75,-18.25,-191.5,2.25,15.0,104.75,2
182.0,-267.0,-9.75,-35.25,-213.5,40.0,13.75,65.5,2
290.75,-431.0,-0.5,-35.25,-202.5,71.25,31.5,61.75,2
382.75,-515.0,-10.5,-29.75,-183.75,69.75,28.25,64.25,2
359.0,-345.25,-9.25,-22.75,-153.75,87.5,15.0,52.25,2
219.0,-207.25,-9.75,-15.25,-137.75,77.0,26.75,42.0,2
17.0,-208.75,-13.5,-20.5,-144.0,30.5,18.5,75.75,2
-112.0,-1.0,-11.75,-20.75,-146.0,7.0,19.75,95.75,2
-146.5,192.25,-9.5,-8.25,-153.25,5.0,20.5,86.0,2
-219.25,185.0,-17.5,-5.5,-146.75,1.25,18.0,94.0,2
-270.5,250.5,-10.0,-16.0,-136.5,-17.75,22.75,72.75,2
-307.25,330.75,-22.5,-15.25,-113.0,19.5,18.5,55.0,2
-231.5,586.0,-26.25,-7.0,-77.5,44.25,27.5,57.25,2
-59.75,793.0,-11.5,-0.75,-45.75,8.25,21.5,69.0,2
49.5,573.25,-8.75,-7.75,-48.75,16.75,14.0,69.5,2
130.5,169.25,-10.5,-1.5,-56.75,22.75,23.0,67.5,2
158.25,89.5,-16.75,-1.25,-36.0,35.75,27.5,67.0,2
138.25,294.0,1.75,-6.75,-18.75,32.75,20.25,56.0,2
57.0,79.0,-4.75,0.25,-10.25,62.0,26.25,68.75,2
12.75,-648.75,-6.75,-2.5,10.25,95.75,28.75,76.75,2
32.25,-852.75,-5.0,-19.25,37.25,83.25,13.0,78.75,2
-74.5,-863.5,-13.5,-34.75,39.25,91.75,27.75,74.5,2
-148.25,-587.75,-22.0,-30.25,57.5,72.25,32.0,65.75,2
-218.75,-139.75,-19.75,-38.75,79.5,42.75,18.0,86.25,2
-343.25,-280.75,-15.25,-30.5,77.25,-24.0,15.5,107.75,2
-377.0,-385.75,-10.75,-29.0,88.75,-0.25,23.75,152.5,2
-269.75,-342.0,-8.5,-24.0,106.75,69.25,31.75,169.0,2
7.5,-275.75,-18.75,-32.25,131.5,40.25,32.75,129.75,2
311.5,-277.75,-32.75,-40.0,147.5,50.5,24.5,157.0,2
474.75,-222.0,-33.75,-37.75,142.0,52.25,23.25,151.5,2
427.0,-144.5,-29.75,-51.25,137.75,38.25,17.0,100.25,2
253.75,-61.0,-40.75,-43.75,137.0,61.0,19.5,57.75,2
108.25,97.5,-43.5,-46.25,146.75,56.5,22.25,-23.25,2
35.5,243.5,-46.5,-42.0,173.75,50.5,18.5,-54.5,2
8.25,313.75,-61.5,-51.5,179.75,32.25,23.25,3.75,2
49.0,297.0,-62.0,-43.75,147.25,24.25,26.25,18.0,2
29.5,260.25,-53.25,-32.25,112.0,18.0,34.75,-57.5,2
-8.0,174.5,-60.75,-32.5,74.5,-18.25,34.5,-81.75,2
130.75,183.25,-64.0,-26.75,25.75,-45.0,47.0,-19.0,2
159.75,225.25,-60.25,-20.75,-22.25,-39.0,54.75,12.0,2
-55.75,195.5,-50.5,-8.0,-54.0,-30.0,52.0,-11.75,2
-160.0,195.5,-36.0,-3.0,-66.25,-8.75,47.5,-13.75,2
-35.5,215.5,-36.25,2.5,-60.25,-6.25,44.0,-31.5,2
-91.75,221.75,-29.0,-2.25,-74.75,-17.5,52.5,-43.25,2
-387.5,231.25,-25.25,-5.75,-119.5,-25.5,53.5,-37.75,2
-316.75,225.75,-9.25,6.0,-141.75,-42.75,56.5,-41.0,2
232.75,204.25,1.75,11.0,-167.25,-33.75,55.75,-39.5,2
451.0,145.25,4.75,-1.0,-212.25,-38.75,57.25,-40.25,2
578.5,117.5,29.25,8.0,-225.75,-30.25,54.0,-50.5,2
545.25,111.0,51.25,16.5,-236.0,-27.25,49.0,-55.25,2
216.25,87.25,97.5,21.75,-284.75,-43.0,56.25,-46.75,2
70.75,85.5,107.5,27.25,-310.0,-34.75,51.0,-56.0,2
-48.75,91.5,84.0,16.0,-293.0,-37.0,50.75,-43.0,2
-118.25,93.75,52.5,23.5,-295.25,-74.5,43.0,-48.5,2
-213.75,88.5,27.5,29.75,-289.75,-100.75,40.75,-55.25,2
-211.5,83.75,32.75,21.0,-262.75,-72.0,39.75,-46.0,2
-230.0,58.75,48.25,13.25,-262.75,-33.25,42.75,-29.5,2
-293.0,39.0,64.75,13.25,-255.0,-45.25,47.75,-23.5,2
-410.0,57.0,73.5,14.0,-259.25,-27.5,42.0,-29.0,2
-489.25,34.5,79.5,9.75,-263.5,-5.25,40.5,-24.0,2
-491.75,-9.75,76.75,-4.75,-280.75,-22.5,41.75,-20.0,2
-520.0,-30.5,90.25,0.25,-321.0,-13.0,41.5,-23.5,2
-626.25,-36.25,77.5,5.25,-334.25,-25.75,39.0,-22.0,2
-668.5,-16.0,66.0,-12.25,-337.25,-15.75,31.0,-14.75,2
-398.25,-2.5,55.75,-6.5,-319.75,-2.75,22.5,-21.0,2
-272.0,-17.75,55.0,-0.25,-285.25,0.25,19.75,-9.0,2
-145.25,-47.5,46.75,1.5,-257.25,12.25,12.0,18.75,2
-17.75,-67.25,23.25,1.0,-203.25,13.25,18.0,4.25,2
78.75,-62.0,19.25,-7.25,-151.0,22.25,16.75,-15.0,2
187.75,-64.25,7.5,-7.0,-120.5,26.25,0.5,-6.25,2
220.5,-89.0,-3.75,-14.25,-89.75,30.0,5.75,-6.75,2
276.25,-133.5,-23.75,-11.25,-72.5,13.0,9.75,-13.75,2
166.0,-149.25,-23.5,-10.5,-58.0,2.5,11.5,-16.25,2
219.5,-120.0,-34.25,-20.25,-38.75,9.25,17.5,-18.25,2
230.75,-103.25,-38.75,-11.25,-15.25,31.75,11.25,-22.0,2
224.5,-66.5,-38.25,-15.25,3.5,31.0,17.0,-18.75,2
153.75,-18.25,-30.25,-29.5,-3.75,24.25,26.25,-27.0,2
-244.5,15.0,-22.5,-27.75,-13.25,32.75,35.5,-44.75,2
-402.75,32.25,-31.0,-27.5,-18.5,43.5,38.75,-31.75,2
-125.25,40.25,-33.75,-32.25,-14.0,25.25,28.25,-25.25,2
162.25,94.0,-41.25,-21.25,10.75,33.25,29.25,-45.25,2
440.0,121.5,-33.0,-27.75,26.5,86.75,33.75,-42.75,2
705.25,86.25,-26.5,-36.25,32.5,86.25,37.5,-43.75,2
585.5,17.75,-27.25,-19.5,29.75,71.75,28.5,-48.5,2
-260.5,-16.25,-29.5,-21.0,25.25,30.5,41.0,-46.0,2
-972.0,-9.75,-29.75,-21.75,46.25,33.5,45.0,-43.75,2
-482.75,-37.5,-23.5,-12.75,62.75,63.0,43.25,-44.75,2
67.25,-77.25,-19.75,-12.5,34.5,54.75,52.0,-45.5,2
309.5,-85.0,-13.0,-4.25,-51.5,14.25,52.5,-41.5,2
891.75,-37.0,-9.25,-8.0,-103.25,-33.75,57.25,-41.25,2
837.25,20.25,-12.75,-9.0,-121.5,-38.25,62.0,-39.25,2
479.75,18.75,-12.5,-0.5,-154.0,-17.0,48.25,-40.25,2
-388.5,-34.5,-13.75,-10.5,-167.5,-11.0,54.5,-37.0,2
-985.0,-50.0,-16.0,-14.75,-198.5,-27.25,63.25,-31.25,2
-759.5,-30.0,-19.25,-18.75,-211.75,-31.25,58.25,-22.75,2
-246.0,-22.25,-25.5,-38.0,-202.75,-29.75,46.75,-19.75,2
508.0,-7.75,-24.75,-42.25,-180.25,-2.25,34.5,-17.75,2
956.0,-18.0,-22.5,-37.0,-171.75,-8.5,38.25,-16.0,2
979.5,-11.25,-9.25,-29.0,-159.5,-10.25,25.25,-20.0,2
634.0,-9.0,-17.0,-23.75,-102.75,-21.25,18.25,-16.25,2
74.5,-19.75,-35.5,-24.75,-46.0,-17.0,25.25,-13.0,2
-644.25,-12.75,-24.25,-26.0,-22.0,22.5,18.0,-14.75,2
-907.5,-3.5,-17.0,-19.75,-35.25,-1.5,15.0,-19.25,2
-1074.75,0.0,-2.0,-11.25,-42.25,4.0,23.0,-34.75,2
-950.25,-0.75,9.5,-18.25,-18.25,-21.25,15.0,-32.0,2
-135.75,19.5,3.75,-16.5,27.5,-3.75,10.25,-24.5,2
638.0,52.5,-10.0,-21.0,65.25,17.0,13.5,-22.0,2
822.25,63.75,-5.75,-19.0,108.25,4.5,12.0,2.75,2
-114.25,68.75,-15.0,-5.0,171.25,8.25,13.75,12.5,2
-1201.0,84.0,-17.25,-25.25,220.5,-12.5,8.75,37.25,2
-1193.75,88.25,-22.5,-21.75,265.25,16.0,12.75,60.25,2
-470.75,82.0,-31.5,-21.25,309.5,22.5,9.75,52.25,2
929.25,61.5,-5.0,-23.25,346.5,33.0,7.75,58.0,2
1127.5,11.25,-26.75,-18.5,349.25,46.0,12.25,58.25,2
1319.5,-37.0,-26.25,-26.5,333.0,61.0,15.5,33.0,2
1342.5,-58.5,-19.0,-32.25,316.25,58.0,11.25,13.0,2
1003.25,-21.75,-23.5,-40.75,280.0,34.5,13.0,22.25,2
-94.5,16.75,-24.25,-27.75,270.0,36.75,5.25,25.0,2
-453.5,-10.75,-35.75,-28.5,322.0,54.5,-0.75,36.75,2
-742.75,-50.25,-35.0,-41.5,379.0,96.5,1.25,87.25,2
-444.0,-78.75,-58.5,-40.5,394.75,89.75,-4.5,113.0,2
202.5,-88.0,-53.75,-33.75,380.0,94.5,0.75,108.0,2
275.25,-75.25,-46.5,-24.0,422.0,108.75,-8.75,130.75,2
305.75,-69.75,-53.5,-38.0,473.75,120.5,-12.25,142.5,2
91.75,-76.5,-52.75,-45.5,473.0,115.5,-5.25,122.5,2
-256.25,-82.0,-62.5,-49.0,453.0,101.0,-1.75,107.0,2
-578.25,-58.0,-70.0,-53.75,443.75,70.5,-9.0,108.0,2
-782.5,-41.25,-73.0,-46.75,441.75,23.75,-14.75,112.5,2
-531.0,-33.0,-67.5,-49.25,429.0,39.75,-9.75,103.25,2
-99.75,-27.5,-60.75,-45.25,410.5,-6.25,-5.5,96.0,2
405.5,-24.75,-55.5,-34.75,381.0,-4.0,4.25,89.75,2
846.0,0.75,-41.25,-31.0,381.5,66.75,7.5,82.0,2
838.75,-10.75,-39.0,-37.5,430.25,33.0,10.75,67.5,2
569.75,6.0,-47.25,-36.75,415.75,13.5,16.25,52.25,2
52.25,21.25,-50.25,-34.0,386.5,55.0,7.5,57.75,2
-204.5,-6.0,-44.5,-31.5,347.75,52.5,11.25,53.75,2
-428.75,-12.25,-52.5,-20.0,294.25,33.0,-4.0,45.25,2
-616.75,-16.75,-56.25,-28.5,273.25,27.25,-9.5,35.75,2
-465.25,0.5,-54.5,-26.0,231.5,32.5,1.25,29.0,2
-278.5,-7.25,-56.0,-33.0,161.0,26.0,-1.25,13.75,2
-112.75,16.75,-35.5,-32.0,81.25,13.5,-1.5,8.25,2
-83.0,41.25,-30.5,-28.75,16.75,11.25,2.25,-0.25,2
-150.25,40.75,-37.75,-28.25,-15.0,4.75,6.0,-4.25,2
-258.25,54.5,-32.25,-18.0,-69.5,8.75,-0.75,-5.5,2
-274.0,65.75,-21.25,-24.0,-124.0,-3.25,4.25,-26.25,2
-298.75,94.0,-26.75,-9.0,-132.0,-4.5,9.25,-34.5,2
-266.5,85.0,-22.0,-0.25,-122.0,5.0,5.25,-36.5,2
5.5,63.5,-1.25,-3.25,-155.0,2.25,-0.5,-41.75,2
267.0,27.0,14.25,1.0,-213.0,8.75,11.25,-57.5,2
331.75,-6.75,28.25,-0.5,-246.25,8.75,8.25,-76.75,2
244.75,-23.0,21.75,1.0,-270.0,4.5,6.75,-68.0,2
33.5,-29.25,17.0,6.25,-253.5,-12.0,18.75,-61.75,2
-138.75,-11.5,25.5,6.0,-248.75,-22.0,11.0,-65.0,2
-98.5,-21.75,30.25,14.0,-268.75,-36.25,10.0,-66.25,2
-77.0,-32.5,36.0,16.25,-261.25,-17.75,18.0,-81.25,2
138.75,-3.25,27.5,8.75,-291.0,-8.25,18.0,-75.25,2
379.25,23.75,10.25,17.5,-306.25,-26.0,14.75,-75.25,2
434.25,5.0,9.25,10.5,-287.25,-27.75,16.0,-77.25,2
203.75,-1.5,10.75,0.5,-301.0,-33.75,14.0,-88.0,2
-391.0,-3.0,9.75,3.5,-355.5,-25.5,10.5,-90.75,2
-745.5,-5.75,11.0,0.25,-404.5,-30.25,15.25,-84.0,2
-735.75,-11.5,11.25,-9.75,-453.25,-31.25,23.5,-92.5,2
-179.5,-21.25,17.0,-5.75,-470.75,-26.75,14.75,-84.5,2
318.0,16.5,24.0,-3.25,-464.0,-16.5,19.25,-78.5,2
409.75,35.25,27.0,-2.75,-456.75,-15.25,27.5,-62.75,2
545.5,41.75,35.0,-0.75,-442.75,-36.25,27.75,-59.0,2
429.0,38.25,30.5,6.0,-445.5,-44.0,36.0,-56.5,2
208.25,33.25,28.5,-1.25,-425.0,-52.5,36.5,-33.25,2
70.25,41.5,36.0,-4.0,-364.75,-32.5,36.25,-42.75,2
20.0,14.0,36.75,-11.25,-304.75,-13.25,33.0,-42.5,2
-85.5,3.25,30.75,-7.5,-247.0,-0.5,39.5,-31.0,2
-158.0,23.25,34.0,1.5,-201.0,7.75,49.75,-29.0,2
-173.75,29.75,39.0,-14.25,-143.25,-2.25,43.25,-21.75,2
-198.5,40.5,37.0,-8.0,-88.25,-3.25,36.25,-29.75,2
-165.25,40.0,45.0,-10.0,-64.75,-15.0,37.0,-36.0,2
-140.25,-8.5,43.75,-11.0,-20.75,-13.25,40.25,-13.5,2
-112.0,-30.25,49.25,-16.0,30.0,-25.25,44.5,14.75,2
-339.5,-20.75,61.5,-25.25,77.0,-20.5,44.0,16.5,2
-456.0,14.75,67.75,-14.5,102.25,19.25,44.25,19.25,2
-498.0,-20.25,76.25,-11.0,127.0,20.75,42.0,12.0,2
-581.25,-75.75,75.5,-18.5,147.5,29.0,37.75,8.75,2
-532.25,-52.0,95.0,-25.0,154.75,20.25,32.25,9.25,2
-542.5,-61.0,105.5,-18.25,175.75,-6.0,31.25,27.25,2
-403.5,-39.5,113.75,-18.25,169.5,1.5,27.75,55.75,2
-291.75,-23.0,120.5,-16.0,157.25,17.0,24.0,34.5,2
-221.5,-23.0,119.75,-3.25,129.0,18.5,40.25,1.75,2
-138.75,-24.25,143.75,12.25,93.0,27.75,58.25,-4.5,2
-114.75,-42.75,140.75,27.0,83.25,13.0,68.5,-43.25,2
-101.5,9.75,129.75,29.75,67.25,-14.75,62.0,-83.25,2
-75.5,77.5,116.5,33.0,26.5,-37.5,58.75,-113.5,2
18.25,118.75,114.25,37.25,17.25,-64.0,64.25,-189.25,2
57.75,140.75,99.25,44.5,44.0,-51.5,65.0,-200.25,2
106.5,125.0,69.75,55.75,84.5,-31.75,61.0,-136.0,2
99.25,124.75,50.5,49.75,135.0,-15.75,62.5,-80.75,2
142.5,111.75,21.25,34.75,215.0,-5.5,63.25,-51.25,2
97.75,64.0,1.0,28.5,317.25,11.75,41.5,-26.0,2
-35.75,33.0,-33.5,10.25,392.25,35.25,32.5,23.25,2
-87.5,-10.75,-52.0,-6.0,437.25,21.0,34.25,64.25,2
-49.5,-15.25,-66.25,-23.25,468.0,19.5,32.75,73.5,2
68.75,-1.0,-66.5,-36.0,490.5,33.25,31.0,82.0,2
136.5,17.75,-86.25,-34.75,498.5,36.25,35.25,86.25,2
186.75,-20.5,-100.5,-40.75,502.75,34.75,37.5,104.0,2
270.5,-69.5,-88.5,-52.5,502.0,42.75,34.5,149.5,2
322.25,-30.25,-99.5,-51.5,529.75,84.0,29.25,161.0,2
300.0,-23.0,-104.75,-59.25,518.75,101.0,21.75,147.5,2
81.5,-8.0,-112.75,-56.75,504.25,126.0,20.5,150.25,2
-276.25,-20.0,-97.5,-54.75,487.25,157.0,14.0,152.0,2
-82.5,-3.25,-103.75,-59.5,452.25,149.75,15.75,168.75,2
162.25,61.75,-110.75,-58.75,438.0,109.25,5.25,171.75,2
154.25,53.5,-110.0,-51.0,403.0,67.25,6.75,175.25,2
315.5,19.5,-117.0,-42.75,362.0,105.75,6.5,182.75,2
323.25,-12.75,-98.75,-46.5,318.5,101.5,4.75,174.25,2
330.75,-72.5,-100.0,-42.5,278.0,41.5,4.0,179.75,2
315.25,-100.75,-85.25,-39.75,239.5,3.75,-7.25,177.25,2
390.5,-98.0,-86.25,-39.5,202.25,13.0,-1.5,169.0,2
428.0,-117.0,-77.25,-35.75,168.5,13.5,-9.75,170.25,2
390.75,-87.25,-78.25,-37.0,124.25,1.5,-3.25,182.5,2
352.0,-54.75,-76.25,-30.75,106.75,71.25,10.25,178.0,2
219.0,-33.0,-64.5,-34.75,78.75,83.5,10.25,175.25,2
89.25,-4.25,-58.0,-31.25,49.75,79.25,4.0,182.25,2
-91.0,3.75,-48.25,-38.25,25.0,64.5,3.25,170.25,2
-237.0,-12.5,-63.75,-47.25,-17.0,33.25,-6.25,166.75,2
-380.0,-34.0,-66.0,-45.25,-32.25,23.75,-17.5,162.25,2
-409.75,-52.0,-72.5,-44.25,-59.5,29.75,-16.0,167.5,2
-374.0,-52.5,-75.75,-39.25,-104.75,78.5,-24.0,171.75,2
-293.0,-22.25,-77.25,-44.0,-135.5,50.5,-19.5,183.25,2
-185.75,-25.5,-78.5,-43.25,-168.25,14.0,-30.0,180.5,2
-135.75,-28.0,-66.0,-44.75,-173.5,-7.0,-34.0,180.0,2
-68.0,-16.5,-71.5,-39.0,-184.25,-42.5,-35.25,173.75,2
10.5,-13.0,-68.0,-27.5,-188.5,-9.0,-41.5,158.75,2
17.0,-23.25,-55.25,-19.5,-197.75,37.75,-35.5,175.75,2
35.25,-42.25,-56.75,-21.5,-217.75,38.25,-49.0,174.5,2
114.0,-40.5,-48.75,-17.5,-225.75,27.0,-45.25,168.5,2
38.0,-52.5,-38.0,-9.0,-217.25,-1.25,-46.5,167.75,2
26.0,-66.5,-31.25,-13.5,-206.5,13.75,-39.25,163.5,2
27.75,-75.0,-22.75,-19.0,-222.5,2.25,-40.75,170.75,2
9.5,-57.25,-23.75,-21.75,-226.5,-0.25,-30.5,176.25,2
10.75,-40.0,-29.25,-19.25,-243.0,39.5,-23.0,180.5,2
-93.5,-30.5,-36.75,-14.75,-243.25,24.5,-24.0,177.75,2
-98.5,10.0,-35.5,-20.0,-237.0,43.25,-4.5,164.25,2
-56.5,23.25,-15.5,-30.0,-234.5,26.5,-10.75,167.0,2
0.25,25.75,-23.0,-25.0,-229.75,-21.75,-1.75,165.5,2
47.75,39.25,-24.75,-27.75,-222.75,-58.25,1.5,157.75,2
56.0,40.75,-11.25,-17.75,-204.25,-38.5,1.25,152.0,2
59.5,17.25,-17.0,-27.25,-200.5,-18.5,12.75,130.0,2
152.5,4.5,-7.25,-23.0,-204.75,-39.0,28.25,125.5,2
259.75,-7.5,0.0,-8.5,-196.25,-47.75,34.75,120.5,2
314.5,-19.5,-8.5,-12.75,-171.75,-18.5,38.75,106.0,2
412.75,-18.25,1.0,-7.75,-151.75,42.25,22.25,104.5,2
424.5,-24.25,16.75,-9.25,-134.75,57.5,28.0,87.25,2
383.25,28.5,25.5,-1.0,-115.25,62.5,42.75,86.5,2
334.75,61.5,23.5,2.5,-112.25,40.0,23.0,68.5,2
248.0,71.75,22.5,-6.25,-121.0,40.5,21.75,39.25,2
53.0,92.0,19.75,-10.75,-140.25,14.5,11.75,26.5,2
-148.0,93.0,21.75,-4.25,-134.5,-18.25,15.25,25.5,2
-255.5,80.0,10.75,-1.25,-152.25,-5.5,24.25,29.25,2
-362.0,72.5,13.75,-10.75,-176.5,0.0,22.5,18.75,2
-407.25,79.0,24.75,-0.75,-189.5,14.25,23.0,20.0,2
-367.0,92.5,7.5,-5.5,-205.0,24.0,24.5,17.75,2
-340.25,85.5,-1.5,-17.5,-200.0,36.0,32.5,6.75,2
-231.75,22.0,5.5,1.5,-191.25,51.5,30.25,-3.0,2
-148.0,-44.0,12.75,-4.75,-184.25,44.5,24.5,-4.0,2
-180.25,-35.75,6.75,-2.25,-171.25,29.25,37.0,-14.75,2
-206.25,-37.0,3.25,-4.5,-147.25,17.25,43.0,-25.0,2
-247.0,-54.25,-6.25,-17.5,-141.25,7.25,52.5,-23.0,2
-325.5,-11.25,-12.0,-14.5,-150.25,29.25,57.5,-34.75,2
-413.75,8.0,-7.25,-18.0,-158.5,27.0,64.0,-40.75,2
-345.5,-9.5,-7.5,-25.25,-170.0,41.0,61.0,-47.5,2
-123.75,-38.5,-18.75,-30.75,-182.25,58.25,60.5,-48.0,2
152.0,-41.0,-14.5,-16.25,-200.25,38.75,67.25,-65.0,2
339.25,-29.75,-15.0,-19.25,-181.75,32.5,51.75,-76.25,2
371.75,-12.25,-12.25,-26.75,-176.0,28.75,50.25,-77.75,2
329.5,48.25,-3.75,-16.75,-183.25,35.25,46.25,-89.0,2
284.5,38.5,-5.0,-20.5,-183.75,-9.25,28.0,-88.5,2
209.0,42.5,2.25,-14.0,-201.75,-52.75,33.0,-97.0,2
159.0,85.75,2.25,-22.5,-207.25,-51.0,27.25,-101.5,2
111.75,221.0,7.5,-16.0,-209.0,-2.5,18.75,-105.0,2
8.25,339.25,11.0,-8.25,-194.25,26.0,18.25,-107.75,2
-95.0,141.5,9.5,-18.75,-178.75,23.25,30.5,-119.0,2
-162.0,-96.0,11.25,-11.25,-165.5,23.25,34.75,-124.0,2
-156.0,-224.5,10.5,-10.5,-148.25,21.75,24.5,-119.0,2
-126.5,-256.25,3.0,-3.0,-134.25,42.0,39.25,-114.75,2
-105.75,-228.0,11.0,3.75,-99.75,33.5,50.75,-111.75,2
-115.75,-82.0,15.75,2.5,-78.25,27.5,41.5,-108.0,2
-97.75,27.75,-3.5,3.5,-59.25,53.5,43.75,-91.5,2
-12.75,39.75,0.75,5.5,-53.0,61.75,40.0,-102.0,2
96.5,78.0,2.0,-7.5,-41.0,46.25,32.0,-99.5,2
121.0,-24.25,3.25,-17.5,-33.5,30.0,31.75,-98.75,2
60.25,-47.5,-0.75,-20.0,-24.25,25.5,35.25,-108.25,2
12.0,-76.75,-3.5,-18.75,15.25,38.75,36.5,-112.5,2
-48.5,-104.25,-3.5,-19.75,32.5,37.75,26.75,-106.75,2
-58.0,-189.25,-15.25,-23.0,53.75,62.0,45.25,-98.75,2
-109.5,-300.5,-6.75,-6.5,53.75,62.75,48.75,-113.5,2
-159.25,-151.5,-2.5,-9.0,60.5,28.75,44.5,-111.75,2
-162.0,6.25,-0.25,-15.5,73.75,10.5,42.5,-119.75,2
-145.25,80.25,1.0,-10.5,70.5,14.25,42.75,-122.5,2
-88.0,83.0,-0.5,-11.0,91.75,34.75,47.5,-102.75,2
-78.0,88.75,-1.0,-13.25,84.75,41.75,38.0,-113.75,2
-48.5,90.25,9.5,-15.75,98.5,54.75,35.5,-105.25,2
-52.75,111.75,9.5,-10.25,122.0,54.5,28.25,-105.75,2
-138.75,68.75,6.0,-10.5,141.5,52.75,23.5,-93.0,2
-186.25,-72.75,11.75,-18.0,162.25,62.5,20.75,-94.75,2
-142.0,-130.75,16.0,-15.0,165.25,72.5,14.75,-110.5,2
-62.75,-11.0,10.75,-12.75,172.75,57.0,10.0,-87.5,2
4.25,191.75,8.25,-15.75,181.75,76.5,8.75,-96.25,2
79.0,332.0,10.5,-16.5,180.5,90.0,13.5,-85.25,2
108.5,377.75,10.0,-16.25,182.5,80.75,6.75,-84.0,2
68.25,225.75,4.25,-21.75,198.25,92.0,2.75,-68.0,2
90.0,33.0,2.25,-30.75,199.5,74.75,10.5,-40.5,2
99.5,-99.0,6.25,-21.0,191.75,64.75,9.0,-55.5,2
64.5,-33.75,-2.5,-24.0,201.75,56.0,6.25,-58.0,2
14.0,-21.75,8.25,-16.75,214.75,58.75,11.0,-88.75,2
-56.5,32.0,8.75,-18.5,219.5,59.25,20.0,-109.75,2
-110.25,145.5,1.5,-19.0,237.25,63.75,31.25,-101.25,2
-217.5,20.5,4.25,-16.0,247.25,82.25,28.75,-90.25,2
-352.25,-36.5,0.25,-23.5,267.75,81.0,35.25,-74.25,2
-451.5,-124.25,2.25,-15.75,273.75,108.5,29.5,-43.75,2
-540.75,-74.75,-5.0,-22.75,264.75,107.0,13.5,11.25,2
-638.25,21.75,-14.0,-30.25,267.5,111.0,9.5,33.75,2
-657.75,-102.25,-21.25,-49.5,279.25,131.75,13.0,46.0,2
-472.0,-179.0,-28.75,-53.25,292.25,156.0,24.25,48.75,2
-84.25,-214.0,-40.25,-44.5,322.0,185.75,9.25,10.75,2
347.75,-253.75,-37.75,-49.25,346.75,160.25,7.0,6.5,2
668.0,-213.75,-46.75,-54.0,357.75,153.0,6.5,36.0,2
896.5,-123.0,-46.0,-59.0,361.5,132.25,1.75,21.25,2
1022.5,-34.75,-48.0,-51.5,357.75,35.0,-3.75,11.75,2
1083.75,-35.25,-52.0,-47.25,340.75,-106.0,-12.75,79.0,2
1102.5,-6.5,-50.25,-47.25,320.75,-169.5,7.0,83.5,2
1063.0,46.5,-51.5,-42.5,307.75,-91.75,18.5,45.75,2
944.0,22.75,-49.0,-37.75,284.75,-17.75,24.25,-10.25,2
755.0,122.75,-55.75,-34.75,259.5,1.0,38.75,-107.25,2
494.75,166.25,-52.25,-27.25,234.25,2.25,45.75,-145.75,2
226.25,158.0,-54.5,-19.5,194.0,24.0,50.25,-121.0,2
109.25,208.0,-55.25,-14.0,162.25,44.5,39.75,-80.25,2
14.25,194.75,-46.5,-13.25,141.75,40.75,34.5,-152.25,2
-128.5,240.75,-51.25,-4.75,122.25,48.75,36.75,-114.25,2
-232.25,262.75,-43.25,3.5,97.75,28.25,33.75,-22.5,2
-315.75,251.0,-37.0,6.25,57.25,17.5,25.0,-48.25,2
-397.75,239.0,-42.75,-0.75,27.75,-3.25,26.25,-33.25,2
-445.0,175.5,-30.25,8.5,-17.75,-94.0,37.5,-36.25,2
-456.25,100.75,-23.25,21.25,-72.0,-128.75,34.5,-44.75,2
-434.25,-62.5,-23.0,11.25,-108.5,-32.75,37.75,-43.0,2
-356.0,-178.0,-19.25,22.5,-141.25,2.75,29.75,-42.0,2
-318.0,-317.5,-14.25,34.25,-152.0,30.75,24.25,-37.75,2
-269.0,-330.0,-6.0,25.75,-173.0,75.0,33.25,-31.75,2
-230.75,-231.25,-0.75,27.0,-189.25,63.75,39.75,-23.75,2
-189.5,-280.25,4.0,34.75,-195.0,66.25,40.5,-11.0,2
-140.5,-192.75,8.5,30.0,-214.5,40.75,34.75,-9.25,2
-113.25,-124.75,18.25,19.0,-195.5,23.5,33.0,-21.75,2
-59.75,-13.0,34.75,24.0,-177.0,13.25,29.0,-21.5,2
-27.5,98.0,35.75,26.25,-169.0,12.25,24.25,-26.75,2
23.75,16.0,32.75,36.5,-149.25,13.75,31.75,-13.75,2
26.75,135.0,32.0,39.0,-137.25,27.75,29.75,-17.75,2
-63.25,294.0,27.0,26.0,-129.5,49.5,27.0,-20.75,2
-84.75,364.0,32.5,22.5,-116.5,33.75,25.0,-15.25,2
-37.5,575.25,26.25,24.0,-87.75,17.25,20.25,16.25,2
9.0,431.0,27.0,13.5,-56.0,2.5,23.75,43.75,2
47.25,78.75,22.75,12.25,-27.75,3.75,21.75,21.75,2
63.25,-94.75,21.25,13.5,9.25,-50.75,14.5,43.0,2
56.25,-160.25,36.25,5.0,31.5,-112.5,11.0,43.25,2
11.0,-183.25,37.5,-1.25,58.0,-37.0,16.0,32.25,2
-56.75,-287.5,33.25,-4.75,71.25,-5.25,10.25,23.5,2
-155.25,-318.75,46.0,-12.25,76.5,-30.75,10.25,-29.5,2
-255.25,-43.0,48.25,-13.75,95.0,-16.25,5.0,-47.75,2
-365.5,532.5,39.0,-19.25,115.0,-29.0,1.0,-90.0,2
-401.0,547.75,40.25,-37.0,126.75,-12.5,11.5,-50.0,2
-315.5,560.75,34.75,-34.5,144.75,1.25,9.25,33.75,2
-219.25,819.0,48.25,-29.0,149.75,12.25,5.5,20.25,2
-119.0,147.25,50.75,-36.25,146.25,22.0,11.25,-3.5,2
-81.5,-395.0,42.25,-29.75,163.25,18.5,16.5,20.0,2
-98.75,-624.0,49.0,-30.25,176.25,45.75,10.5,82.25,2
-138.25,-922.5,41.75,-37.0,186.5,35.0,11.5,91.25,2
-169.0,-1036.0,39.0,-35.75,208.5,21.75,19.25,110.75,2
-169.25,-1023.75,36.0,-42.25,190.5,33.75,10.75,133.0,2
-158.75,-1018.75,18.5,-36.75,180.5,33.25,14.75,105.75,2
-126.25,-782.25,19.75,-36.25,183.25,16.25,9.25,94.75,2
-131.0,-206.5,11.75,-36.0,185.5,7.5,4.25,46.25,2
-162.0,281.5,8.0,-42.0,203.25,16.5,12.75,4.25,2
-198.5,291.25,32.0,-30.75,206.25,15.75,24.0,30.25,2
-209.0,223.5,22.5,-23.75,212.25,28.75,24.0,68.0,2
-194.75,168.0,11.25,-36.0,217.0,44.5,23.75,25.75,2
-196.5,205.25,16.75,-23.25,211.75,46.75,33.5,-12.75,2
-52.0,270.0,7.75,-42.25,197.5,34.5,29.5,87.75,2
136.25,235.0,7.75,-48.25,199.5,14.25,32.5,152.5,2
240.25,169.5,13.25,-66.25,213.0,4.0,20.5,126.25,2
378.0,46.0,30.5,-98.25,248.5,33.25,10.5,125.75,2
411.5,74.75,45.25,-111.75,282.25,24.5,11.5,78.0,2
430.75,200.25,28.0,-91.0,244.75,4.0,6.25,79.25,2
490.0,270.0,1.75,-43.5,192.25,5.75,20.0,143.25,2
423.25,252.0,-15.25,-22.0,190.25,-2.25,27.75,116.0,2
170.5,249.25,-21.0,-13.25,190.25,24.0,17.0,87.5,2
14.0,297.0,-32.0,-16.5,197.5,39.5,30.0,84.75,2
-33.75,273.75,-29.5,-24.75,210.5,59.75,34.0,46.5,2
-252.25,255.25,-30.25,-16.75,212.0,67.25,27.75,56.75,2
-462.0,186.25,-19.0,-27.5,217.0,73.25,30.75,74.5,2
-694.0,39.5,-10.5,-40.25,219.75,96.75,24.0,92.75,2
-743.5,9.75,-6.75,-44.0,248.25,92.75,25.0,117.75,2
-545.5,95.75,12.0,-60.5,279.75,82.0,22.0,161.75,2
-327.25,89.5,24.0,-65.0,304.0,74.75,20.0,210.5,2
-156.75,26.75,36.0,-76.75,294.5,56.5,22.5,199.25,2
-156.25,-62.5,42.25,-78.75,283.75,40.25,14.75,209.0,2
-223.75,-195.75,47.75,-81.75,268.25,30.5,6.25,210.0,2
-255.25,-247.75,50.25,-81.0,250.25,39.5,16.0,224.0,2
-284.0,-189.0,44.0,-71.75,240.75,17.25,15.0,294.75,2
-377.25,-37.25,51.75,-70.25,213.0,3.75,-4.75,303.75,2
-492.75,71.25,47.0,-73.75,182.25,43.25,3.75,240.25,2
-406.75,28.5,25.0,-55.5,117.5,65.75,-0.25,195.5,2
45.25,-85.0,16.0,-29.0,49.0,67.5,2.0,127.0,2
751.0,-262.0,3.25,-19.75,-11.0,64.25,17.25,56.75,2
987.0,-365.5,-9.5,-5.5,-67.0,73.0,27.75,26.5,2
973.5,-278.5,-31.0,10.0,-107.25,78.0,41.25,-59.0,2
1025.75,-103.25,-43.5,27.25,-128.75,81.0,47.5,-123.5,2
1107.0,119.75,-71.75,21.25,-136.75,60.5,50.75,-46.5,2
775.75,259.5,-87.5,28.25,-163.0,34.5,38.75,36.5,2
287.25,244.0,-90.25,39.75,-177.75,6.25,38.75,-0.75,2
-150.5,200.75,-100.75,51.5,-197.75,-2.5,38.5,1.0,2
-493.25,183.75,-92.75,53.25,-229.25,11.0,16.5,-17.5,2
-597.5,81.0,-94.0,37.25,-239.75,-4.25,17.25,-37.0,2
-568.5,-15.0,-82.0,42.0,-250.25,-21.5,4.5,-45.0,2
-480.25,-93.25,-85.25,29.0,-259.0,-30.0,-5.25,-92.0,2
-405.75,-169.25,-77.0,28.25,-254.5,-30.75,8.75,-3.5,2
-355.25,-254.0,-60.5,18.0,-246.0,-51.25,11.25,46.5,2
-302.0,-176.0,-44.25,5.5,-237.0,-49.75,5.75,31.75,2
-394.25,24.25,-22.5,6.5,-251.0,-25.0,15.25,51.75,2
-544.5,53.75,-32.25,-0.75,-277.0,-2.25,27.0,24.0,2
-476.0,103.75,-29.25,-3.25,-283.25,-6.0,17.0,44.5,2
-240.75,88.0,-26.5,-7.5,-291.5,-11.5,24.75,50.5,2
-58.75,3.5,-26.5,-5.5,-289.25,4.75,22.75,19.75,2
-52.0,-64.25,-21.25,-11.0,-289.75,-18.0,23.25,34.25,2
-447.75,-83.25,-1.5,-0.75,-286.0,-59.25,30.0,29.75,2
-501.0,-36.75,-2.75,9.75,-287.25,-149.0,22.0,42.0,2
30.0,-34.5,-14.5,4.5,-293.25,-148.25,33.0,54.25,2
436.0,-0.25,-6.0,4.5,-291.75,-48.25,30.75,56.75,2
728.5,3.5,-10.0,4.75,-289.0,-2.5,32.75,42.25,2
663.75,19.25,-3.5,0.25,-275.0,6.5,26.0,22.25,2
467.75,62.5,-7.75,-3.25,-290.0,-8.5,25.0,1.5,2
234.5,68.75,-9.75,0.0,-290.0,-27.5,30.25,5.75,2
-8.0,85.5,-12.25,2.5,-262.75,-10.5,32.75,18.75,2
-144.75,58.0,-20.25,5.25,-258.5,-17.5,26.75,-1.25,2
-351.0,33.5,-24.0,-4.5,-258.25,-30.5,23.5,7.0,2
-630.5,25.25,-24.0,-7.5,-251.25,-45.75,20.25,10.0,2
-833.5,7.25,-20.25,-5.5,-212.25,-72.25,18.75,20.0,2
-577.25,-9.75,-18.0,4.5,-176.25,-46.75,38.75,43.25,2
-198.0,-60.5,-13.25,12.0,-173.75,-32.25,22.25,41.5,2
158.5,-55.5,-24.5,-10.75,-192.5,-12.75,16.5,45.75,2
590.5,-4.75,-25.75,-7.0,-215.75,-2.75,17.75,50.5,2
986.5,38.25,-43.75,-0.75,-236.0,-13.25,13.5,25.5,2
1085.25,55.75,-47.25,-1.0,-276.25,-18.0,14.5,-9.0,2
896.25,63.25,-41.75,-6.5,-312.25,-13.75,5.0,-18.75,2
