0,1,2,3,4,5,6,7,label
523.0,-43.75,-163.75,-224.75,-253.75,-97.5,-111.25,30.75,3
797.75,-37.0,-247.75,-256.0,-305.5,-221.0,-145.75,20.75,3
1001.75,-21.0,-230.0,-308.25,-396.25,-379.75,-165.5,80.5,3
994.75,1.5,-242.0,-333.0,-471.0,-281.5,-189.75,128.5,3
841.25,-5.75,-353.0,-364.25,-521.25,-205.75,-217.25,156.25,3
613.0,-14.5,-504.0,-369.75,-567.0,-114.25,-225.0,198.0,3
387.25,-3.5,-451.25,-371.25,-555.25,-27.25,-229.75,247.25,3
230.0,3.5,-220.25,-337.75,-492.5,-73.75,-230.0,242.5,3
134.75,-10.0,5.5,-282.0,-390.5,-64.75,-210.25,192.5,3
44.0,-26.75,222.75,-227.75,-245.0,-113.75,-166.5,179.0,3
-141.75,-71.25,374.5,-163.0,-78.75,-93.25,-120.5,129.25,3
-279.0,-118.0,389.25,-116.5,55.5,-100.0,-78.0,103.5,3
-282.25,-132.0,272.75,-84.0,180.75,-181.25,-43.0,78.75,3
-233.5,-134.75,145.75,-23.5,295.5,-71.75,-0.25,44.0,3
-189.0,-148.25,-1.25,27.75,381.0,203.25,26.0,18.0,3
-206.0,-150.75,-114.75,93.25,453.25,365.5,47.5,-23.5,3
-222.0,-147.25,-165.25,139.75,491.5,316.5,77.0,-65.5,3
-318.25,-134.5,-312.75,130.75,516.0,271.5,86.75,-90.75,3
-491.5,-129.5,-637.25,154.5,531.25,163.0,101.25,-85.5,3
-615.5,-127.75,-792.5,184.0,521.75,51.75,130.75,-107.0,3
-747.0,-120.25,-361.5,199.5,512.0,-20.75,144.5,-131.0,3
-889.0,-113.75,75.5,209.0,502.5,-40.75,150.0,-153.5,3
-912.75,-88.0,411.25,229.0,472.0,-62.75,167.5,-143.5,3
-882.5,-69.5,637.5,243.25,429.0,-131.0,176.75,-128.25,3
-833.75,-50.25,629.75,261.25,408.75,-33.75,174.75,-128.25,3
-742.5,-42.75,549.25,273.75,385.75,149.0,184.75,-91.0,3
-617.75,-38.5,336.5,260.5,326.5,219.0,190.75,-61.75,3
-439.0,-4.25,192.25,275.0,266.75,219.0,183.5,-81.0,3
-167.25,23.25,48.25,278.5,208.5,183.25,189.0,-112.5,3
172.5,29.0,-64.75,272.5,184.75,140.5,178.75,-147.5,3
479.25,42.0,-84.75,280.25,169.5,144.25,163.5,-206.0,3
715.75,51.5,-96.0,308.75,133.5,149.75,150.75,-261.25,3
805.5,59.0,-88.75,300.5,126.5,136.75,140.0,-294.0,3
684.75,88.75,-40.0,276.5,125.25,122.0,139.0,-287.25,3
453.0,83.25,-5.25,262.25,87.5,117.5,135.75,-271.75,3
169.75,83.25,-45.5,237.0,63.5,115.0,142.5,-291.75,3
-18.5,110.0,-100.25,229.75,53.5,128.5,119.0,-276.25,3
-70.75,103.5,-213.0,184.0,27.0,124.25,111.5,-187.0,3
-117.5,106.5,-294.0,166.75,21.0,68.75,107.5,-104.0,3
-133.25,91.75,-390.25,190.25,30.25,38.5,78.25,-35.75,3
-179.5,77.75,-336.0,199.25,17.5,41.0,83.0,2.5,3
-266.25,69.75,-94.5,186.75,-1.75,11.5,76.75,-11.75,3
-203.25,65.75,31.75,177.0,-5.25,-6.0,70.25,-17.75,3
-153.5,70.25,74.0,152.0,0.25,5.5,73.0,-52.0,3
-192.5,49.0,95.5,110.5,7.5,25.0,76.0,-35.25,3
-182.25,52.0,47.75,91.25,9.5,66.5,63.75,-39.5,3
-181.5,58.0,7.75,48.5,-10.25,99.0,57.0,-94.75,3
-144.25,54.0,121.25,20.0,-27.75,97.25,55.75,-69.0,3
-92.25,90.5,188.25,4.75,-23.25,62.25,48.0,-26.25,3
-41.75,116.75,101.5,-35.0,-24.75,43.0,61.5,-61.0,3
-4.25,103.25,4.5,-44.75,-32.5,30.0,64.0,-128.5,3
-55.0,99.25,-45.5,-36.75,-43.25,22.0,60.75,-190.5,3
-167.0,81.5,-104.0,-19.5,-62.25,13.75,64.5,-124.0,3
-341.25,56.25,-88.5,-3.5,-63.75,-2.0,70.0,1.0,3
-442.0,37.5,-9.25,-0.75,-64.0,13.25,65.75,14.25,3
-347.5,19.5,-19.5,2.5,-61.0,30.75,61.0,19.75,3
-134.0,11.25,-202.75,7.5,-61.5,52.75,57.75,5.75,3
40.0,-15.5,-310.5,-6.5,-53.75,69.75,44.5,-1.25,3
118.0,-26.5,-106.25,-5.25,-51.5,84.0,41.5,-37.0,3
118.5,-35.0,77.25,-3.0,-56.5,75.0,25.25,-84.25,3
82.0,-17.75,270.75,-14.0,-49.25,57.5,33.5,-46.0,3
-37.25,16.75,556.25,-13.75,-51.25,14.5,41.75,-3.0,3
-246.75,18.0,719.5,-8.0,-56.25,-63.0,31.5,32.25,3
-239.0,41.0,701.75,-2.5,-64.0,-70.75,34.25,15.0,3
-32.25,52.0,474.0,-1.75,-55.5,-42.0,38.75,-39.5,3
-17.5,48.5,259.75,2.0,-48.5,-44.0,31.25,-115.0,3
86.75,54.75,114.75,-17.0,-45.5,-30.75,25.25,-81.0,3
534.0,61.0,8.75,-31.75,-29.75,7.25,24.0,21.25,3
880.5,77.5,22.0,-47.75,-25.25,38.0,27.5,21.25,3
955.75,76.5,7.5,-68.5,-31.75,24.75,24.75,51.0,3
906.25,68.0,-91.75,-66.5,-2.25,-20.25,11.25,65.75,3
785.5,65.75,-201.75,-70.5,15.75,31.5,17.25,54.75,3
624.5,65.0,-211.0,-64.25,9.5,41.0,7.75,47.25,3
287.25,33.25,-197.25,-59.25,39.0,-66.25,-0.5,-8.25,3
12.0,8.25,-250.75,-85.25,65.25,-65.5,0.25,-45.25,3
-174.0,20.25,-327.75,-111.75,75.25,-24.5,-3.5,-25.25,3
-358.0,25.0,-328.5,-147.25,84.75,-13.75,-3.25,61.0,3
-357.5,17.75,-279.25,-139.25,77.75,16.75,-17.25,68.25,3
-388.5,10.5,-429.75,-106.0,84.0,-3.25,-15.75,62.5,3
-339.75,18.75,-672.5,-111.5,104.25,-55.75,-16.25,74.5,3
-284.0,1.5,-745.75,-104.5,98.75,-147.75,-15.75,54.0,3
-231.25,-19.75,-561.25,-88.75,87.5,-252.0,-17.5,89.5,3
-146.5,-33.5,-204.0,-57.25,88.25,-213.25,-1.75,84.5,3
-36.25,-47.75,184.75,-46.25,97.25,-65.5,-15.75,60.75,3
152.75,-57.5,359.25,-44.5,96.0,49.5,-24.5,79.0,3
240.0,-64.0,283.0,-57.5,55.25,98.5,-13.25,105.5,3
305.25,-49.5,191.5,-81.25,28.25,111.5,-18.5,73.25,3
359.75,-31.75,144.75,-75.0,20.25,107.25,-6.25,37.5,3
315.5,-14.75,111.0,-67.75,27.25,115.25,-9.25,18.0,3
198.75,-17.0,10.5,-58.25,49.25,124.75,-11.0,-19.25,3
103.25,-35.5,-101.25,-45.0,52.75,68.25,-13.5,-25.25,3
14.0,-75.5,-150.5,-22.0,58.25,62.0,-20.75,-18.75,3
-24.25,-88.25,-179.0,-1.5,64.75,42.5,-19.0,7.75,3
35.25,-64.75,-219.25,13.75,65.75,-13.25,-17.0,38.0,3
44.75,-52.25,-202.75,8.75,68.5,-2.5,-9.5,44.75,3
-33.0,-46.0,-141.25,-16.0,74.5,24.75,-12.25,49.75,3
-91.5,-44.0,-108.5,-39.0,93.5,21.25,-1.75,67.0,3
-132.75,-50.75,-81.75,-73.5,93.75,16.25,5.25,63.25,3
-146.25,-32.5,6.75,-93.0,77.75,88.0,3.75,91.0,3
-247.5,-10.5,34.5,-100.75,82.25,103.75,12.75,98.0,3
-327.0,15.0,-49.75,-100.25,85.5,106.5,15.25,81.25,3
-254.75,29.25,-64.5,-72.25,103.75,144.5,18.25,80.0,3
-266.0,34.25,-24.75,-70.0,101.0,115.0,14.25,72.5,3
-271.5,39.0,69.0,-45.0,92.25,67.75,11.75,100.75,3
-137.5,22.75,67.5,-35.5,69.0,38.75,14.5,113.0,3
139.5,19.25,-4.75,-66.75,45.25,58.25,17.25,122.25,3
442.75,-9.5,-69.75,-35.25,40.75,96.75,24.25,102.0,3
689.75,-38.0,-170.75,-26.75,17.5,124.25,27.0,107.0,3
689.75,-46.75,21.5,-48.0,-1.75,120.75,25.25,92.5,3
379.0,-60.5,242.0,-60.75,-7.5,149.0,31.5,59.5,3
87.75,-55.0,226.25,-91.75,9.5,213.25,25.75,44.25,3
-152.0,-15.75,221.5,-86.25,14.5,162.75,34.25,8.75,3
-349.5,19.0,160.0,-61.5,13.25,78.5,39.0,16.0,3
-399.5,10.5,41.25,-63.5,24.5,-34.75,19.0,23.25,3
-385.5,8.0,-59.75,-30.75,30.25,-167.75,31.0,25.0,3
-459.75,-16.75,-127.25,1.25,35.5,-152.25,18.5,20.25,3
-407.75,-40.75,-220.75,18.25,28.0,-152.25,15.0,12.75,3
-152.75,-46.75,-177.0,26.0,11.5,-97.25,12.75,4.75,3
111.25,-55.0,-58.75,-6.0,0.75,-60.0,7.0,-15.5,3
318.0,-44.75,53.75,-10.25,1.75,-91.75,12.5,3.5,3
312.75,-25.5,116.5,-19.25,40.75,-40.5,10.25,48.0,3
225.0,0.0,89.0,-18.25,40.25,27.25,14.5,40.75,3
228.0,5.5,159.0,-15.25,33.0,82.25,11.0,39.5,3
213.75,3.0,194.5,-9.75,53.0,71.5,11.75,34.5,3
213.0,14.25,234.25,-6.0,46.5,72.75,21.5,5.25,3
178.75,10.75,320.0,-12.75,48.0,86.5,19.75,21.75,3
90.25,8.75,342.0,-10.0,38.0,99.0,12.25,41.0,3
-45.0,34.25,268.25,3.25,34.0,83.25,23.0,88.0,3
-224.25,57.25,200.75,23.75,36.0,47.0,17.25,85.5,3
-448.5,32.5,153.25,32.75,27.5,-66.25,5.75,75.0,3
-491.5,27.75,100.5,36.5,33.0,-102.25,-0.75,59.5,3
-240.5,49.25,51.75,32.25,30.5,32.0,-7.5,-37.0,3
-105.25,27.75,-53.75,25.0,17.5,23.0,-13.0,-100.75,3
-62.25,-0.75,-142.75,8.75,12.0,17.25,-29.25,-95.25,3
2.75,10.0,-145.0,-14.0,20.0,37.5,-16.25,-21.25,3
39.5,16.5,-147.0,-16.5,16.25,-25.75,-13.5,8.25,3
-118.0,-4.75,-94.75,-8.25,9.75,4.0,-16.25,1.0,3
-370.5,-34.0,49.25,-26.5,14.0,61.75,-10.5,-11.25,3
-475.25,-45.0,146.5,-21.5,27.75,48.25,1.75,-18.75,3
-540.75,-46.75,145.75,-23.0,30.0,65.75,16.25,5.5,3
-544.5,-33.0,-17.0,-26.25,28.75,53.75,17.75,12.25,3
-539.75,-20.25,-137.25,-34.0,39.25,46.25,31.0,29.0,3
-453.25,-18.0,-122.25,-36.25,47.25,77.75,49.0,34.25,3
-180.25,1.25,-81.25,0.25,54.25,114.0,38.75,5.0,3
5.0,22.5,17.5,-5.75,50.5,197.25,28.5,21.75,3
108.0,32.75,120.0,-5.5,58.5,100.25,28.75,65.0,3
252.75,23.25,214.5,-14.5,45.75,15.0,20.0,19.5,3
316.25,-4.75,175.5,-41.0,32.75,9.75,30.25,-53.5,3
399.0,-25.25,187.25,-60.75,40.75,-28.75,15.0,-78.25,3
568.25,-36.75,214.25,-60.5,25.75,-19.5,-15.25,-46.25,3
537.5,-61.25,116.75,-38.5,29.0,-19.75,-4.5,-96.0,3
340.5,-29.0,22.75,-33.0,47.0,20.75,-2.75,-76.0,3
294.25,8.5,-68.75,-46.5,48.25,28.75,-2.25,64.25,3
198.5,-8.0,-181.0,-32.5,29.25,25.0,18.75,12.75,3
156.0,-0.75,-302.0,-21.5,10.0,-11.0,10.0,-20.5,3
287.0,6.25,-253.0,-27.75,13.5,-89.5,13.75,11.25,3
445.5,26.0,-244.25,-50.5,16.5,-60.25,15.0,39.0,3
488.0,28.0,-252.25,-51.25,28.25,-30.5,10.5,35.75,3
250.25,22.5,-219.75,-10.75,51.25,-2.5,19.25,26.5,3
-66.75,20.0,-280.75,-10.5,51.75,86.5,12.0,79.5,3
-271.25,7.75,-325.75,-13.75,38.0,109.25,20.75,115.25,3
-339.0,4.5,-220.25,-4.0,36.75,81.75,22.0,137.75,3
-391.75,4.0,32.75,5.5,42.75,80.0,33.5,119.75,3
-399.0,-12.25,307.0,25.25,45.75,154.75,43.5,123.5,3
-292.75,-7.75,363.0,17.5,47.75,187.0,35.0,100.75,3
-375.5,14.75,75.25,35.25,51.75,129.75,34.25,56.25,3
-572.0,16.0,-102.5,40.5,53.0,48.25,54.75,-4.75,3
-626.5,24.75,-306.5,21.75,38.25,-53.5,64.5,-19.25,3
-708.25,13.25,-556.0,14.25,14.75,-73.25,60.0,34.75,3
-560.75,6.75,-349.75,-21.75,-7.5,-130.5,50.5,32.0,3
-18.5,-9.75,79.75,-30.5,-9.0,-236.5,33.5,45.25,3
554.25,-17.75,397.75,-4.5,-17.25,-197.75,33.75,49.0,3
982.0,0.0,607.25,2.75,-34.5,-96.0,34.0,41.5,3
1066.75,29.0,591.75,-15.75,-41.0,-53.0,31.25,40.75,3
893.25,54.5,409.75,-28.5,-48.0,-3.25,38.75,39.75,3
167.75,39.25,142.75,-20.25,-43.5,48.25,68.25,41.5,3
-48.75,13.25,-168.75,-49.25,-51.5,86.5,49.0,30.75,3
-92.0,-19.75,-514.75,-58.75,-42.75,95.5,45.25,30.5,3
35.75,-21.0,-629.25,-33.75,-27.5,41.5,54.75,20.75,3
347.0,-10.0,-472.0,-35.25,-33.25,-8.25,23.5,26.0,3
331.0,-14.25,-316.5,-45.75,-58.5,-20.25,24.0,15.75,3
289.25,-24.75,-16.0,-29.5,-74.25,-43.5,37.5,13.75,3
99.75,-29.5,240.25,8.0,-85.5,-70.5,50.25,25.75,3
-29.5,-31.0,374.5,4.5,-81.25,-50.25,60.75,24.0,3
-232.75,-32.0,392.75,2.0,-58.0,20.75,56.75,36.75,3
-377.5,-6.0,274.0,12.75,-55.0,83.0,64.0,22.5,3
-462.25,35.25,167.5,-3.25,-63.0,109.75,92.25,16.75,3
-655.5,49.75,39.5,-7.0,-74.25,126.5,68.25,17.75,3
-579.25,51.25,-80.0,-8.0,-84.5,109.0,42.0,-4.25,3
-450.0,38.25,-139.75,-3.25,-90.5,84.75,36.5,-16.75,3
-322.75,22.25,-249.25,2.0,-62.75,75.75,16.5,-35.5,3
-258.5,25.75,-392.5,10.25,-7.0,14.25,26.5,-58.75,3
-143.75,24.25,-453.5,-3.0,48.0,-26.75,28.75,-64.5,3
-50.75,36.75,-448.25,-21.5,73.25,-2.75,8.25,-76.5,3
-111.25,43.75,-350.5,-19.25,47.5,-33.25,13.75,-59.5,3
-131.75,42.25,-193.25,-19.0,11.0,-19.0,29.25,-26.75,3
-4.0,44.25,-203.0,-34.0,-13.75,32.0,37.75,-29.75,3
100.75,38.0,-351.25,-61.0,-40.75,3.0,22.0,-22.25,3
88.5,-5.0,-276.0,-57.75,-39.5,-18.0,0.0,-5.5,3
-7.75,-40.75,-120.5,-57.5,2.75,14.25,0.75,3.75,3
4.75,-32.5,24.5,-65.0,8.5,27.0,-4.25,15.5,3
129.25,-28.0,349.25,-57.5,-23.0,-2.5,-6.75,24.25,3
3.25,-74.75,546.5,-36.75,-39.0,11.75,-3.75,3.75,3
-44.0,-97.5,609.5,-14.25,-40.75,54.25,2.75,4.75,3
-52.5,-75.75,526.25,3.25,-40.25,70.0,8.0,-2.5,3
-93.5,-35.75,258.0,1.0,-42.75,15.75,-2.25,-43.5,3
-90.0,-8.5,20.5,-6.25,-53.5,10.75,-16.75,-26.25,3
-117.5,0.0,-283.0,9.0,-82.75,24.0,-11.25,8.75,3
-42.5,39.75,-512.75,20.0,-84.25,-2.5,-2.75,-1.75,3
-14.0,66.5,-493.25,27.25,-40.0,19.0,6.5,4.75,3
-37.25,84.25,-317.75,24.0,-48.0,33.0,7.5,-23.25,3
-44.5,78.0,-149.25,26.5,-85.5,-1.25,-6.0,-54.5,3
37.75,68.5,-13.75,17.0,-55.5,-71.0,-3.25,3.25,3
172.5,75.75,85.5,-27.25,-11.25,-86.25,12.75,-6.5,3
232.0,61.5,81.25,-51.75,18.75,12.5,-3.5,-6.0,3
180.75,19.5,-1.5,-66.25,37.75,27.25,-15.75,24.0,3
28.25,-53.0,-116.0,-73.5,52.25,-17.5,-0.75,2.0,3
-66.75,-98.25,-80.5,-43.25,42.5,0.75,-23.0,23.25,3
-64.5,-86.75,8.0,-16.25,9.25,-37.5,-24.25,72.5,3
-35.25,-39.0,-33.25,-26.25,-19.5,-28.75,-23.25,86.0,3
-9.75,-5.0,-88.5,-4.0,-23.0,34.75,-35.0,80.25,3
-12.0,-8.5,-202.0,7.25,9.0,32.0,-16.75,88.5,3
-31.75,5.75,-295.75,10.25,39.5,69.75,-21.75,52.25,3
-58.0,0.0,-251.5,37.0,42.0,99.75,-12.75,-38.5,3
-139.0,-4.5,-346.0,15.5,47.0,113.0,7.25,-38.75,3
-259.25,1.75,-502.5,14.75,46.25,142.0,2.25,32.5,3
-379.5,-36.25,-397.25,-0.5,67.0,80.0,12.75,35.0,3
-448.5,-52.5,-159.25,-19.0,92.25,12.5,8.5,26.0,3
-431.75,-48.75,-8.25,-18.0,80.25,-11.25,12.25,-7.0,3
-408.0,-41.75,140.75,-36.0,77.5,-2.25,22.75,7.75,3
-400.75,-11.0,356.25,-30.0,85.75,-53.5,15.25,-45.25,3
-289.25,21.75,558.75,-25.0,63.75,-156.75,12.25,-195.5,3
-123.25,28.5,640.75,-2.5,31.5,-165.0,12.25,-211.25,3
-157.5,41.5,656.25,-6.5,7.5,31.5,16.25,-88.25,3
-333.0,42.25,576.5,-4.75,8.25,51.0,15.75,-6.5,3
-275.5,34.75,280.5,3.25,38.0,-67.5,23.0,-28.25,3
-25.25,23.75,-70.0,-10.75,65.75,-15.5,15.25,40.0,3
416.0,10.5,-94.75,-13.0,90.5,10.25,21.75,38.5,3
943.75,14.5,16.5,-20.25,90.0,45.0,25.25,45.75,3
1287.5,9.75,69.75,-14.5,91.75,28.25,13.0,60.5,3
1433.25,4.5,125.25,-18.5,114.75,55.75,22.0,72.0,3
1328.0,2.25,99.0,-24.5,122.5,73.25,29.25,130.25,3
1173.0,16.0,200.5,-32.75,115.0,67.0,43.5,112.75,3
921.75,39.5,211.25,-53.25,110.0,44.0,28.5,120.25,3
681.25,48.0,133.5,-71.25,108.5,10.5,30.0,96.5,3
227.5,30.0,-70.75,-66.5,102.75,50.5,28.25,58.25,3
-132.0,23.75,-319.5,-42.25,103.25,63.75,15.5,-12.25,3
-349.5,17.75,-178.5,-17.75,92.0,47.75,15.5,-49.0,3
-385.75,3.75,153.75,-18.5,94.75,50.5,9.5,-31.5,3
-417.75,10.5,423.25,-13.25,91.75,95.5,15.25,28.5,3
-384.5,-5.75,462.25,-2.25,88.75,99.5,8.5,85.0,3
-237.75,-11.75,260.25,-17.25,87.0,94.75,21.75,99.75,3
-237.0,-16.0,53.75,-13.75,66.0,215.75,33.5,144.5,3
-412.75,-20.5,-2.25,-1.5,61.75,322.25,18.5,119.25,3
-558.75,-22.25,-64.75,-2.25,61.75,209.75,23.0,112.25,3
-643.75,-43.5,-46.25,-21.0,45.5,74.0,17.5,104.0,3
-664.5,-63.25,61.75,-20.0,33.5,-49.25,16.25,58.25,3
-529.5,-56.5,9.25,-1.5,30.25,-181.25,28.5,10.0,3
-326.25,-34.5,-59.75,-13.5,23.5,-273.0,32.75,-2.75,3
-23.25,-10.75,32.5,-12.25,9.5,-327.75,49.5,51.5,3
177.25,12.75,180.0,2.0,-15.75,-254.0,37.25,17.75,3
264.0,-11.5,339.5,-12.25,-23.0,-201.75,36.25,-6.75,3
162.25,-24.5,476.5,-10.0,-27.75,-123.0,32.5,15.75,3
-78.0,-34.75,540.75,-8.0,-26.75,-2.5,19.25,15.5,3
-152.75,-26.5,546.25,-20.0,-25.75,71.0,38.25,34.0,3
-215.0,-8.0,457.75,-15.5,-28.0,105.75,33.5,58.75,3
-223.0,-2.75,251.75,-17.0,-32.25,137.5,19.0,76.25,3
-143.5,8.0,9.75,-9.5,-55.25,172.0,19.5,88.75,3
-155.5,1.75,-200.25,1.25,-63.25,222.5,30.25,89.0,3
-144.75,8.5,-305.25,4.25,-68.75,237.0,24.5,45.75,3
-53.5,-4.0,-367.5,-2.5,-68.0,118.0,15.0,-26.25,3
-56.0,-1.25,-252.5,-12.5,-71.75,27.25,17.75,-7.0,3
38.0,14.0,-35.0,-1.0,-83.75,-70.75,30.0,60.75,3
86.5,1.0,1.25,18.0,-80.75,-188.75,35.75,35.75,3
-36.5,-6.25,-59.0,-14.75,-76.75,-268.0,11.0,50.5,3
-12.5,-4.25,-168.0,-48.5,-64.75,-238.0,-1.0,59.75,3
-4.75,9.25,-154.5,-57.5,-52.5,-41.0,1.5,46.75,3
49.75,23.75,-38.5,-28.5,-58.5,47.75,14.25,68.75,3
81.0,39.5,70.75,-31.25,-58.25,68.75,33.0,43.25,3
40.75,52.0,174.0,-67.75,-64.75,86.75,35.0,48.0,3
57.5,47.25,101.25,-54.25,-61.25,81.0,26.5,31.5,3
25.0,38.75,-128.5,-53.0,-57.0,102.0,35.0,21.75,3
-21.5,23.0,-201.25,-32.25,-49.75,76.0,36.25,24.25,3
-87.0,22.5,-76.75,-22.5,-29.25,70.25,34.25,22.25,3
-34.25,20.25,24.5,-20.25,-24.75,21.0,39.0,35.0,3
-34.0,-2.25,112.5,3.0,-36.0,-4.75,32.0,26.25,3
-200.25,-24.5,89.25,-20.75,-38.5,-37.0,26.5,18.25,3
-298.0,-58.75,1.5,-47.0,-31.25,-56.75,32.5,2.0,3
-310.0,-54.25,-105.25,-35.25,-18.5,24.0,34.25,5.5,3
-293.0,-35.0,-170.75,-24.0,11.5,16.75,22.0,4.75,3
-271.75,-43.75,-178.0,-18.0,24.5,62.75,23.5,0.0,3
-193.25,-27.5,-229.25,8.25,19.5,108.75,23.25,-0.25,3
-100.0,-1.0,-283.25,15.5,13.75,101.75,26.5,-6.25,3
0.25,-3.75,-296.5,7.75,21.75,123.0,26.0,-3.5,3
74.5,-5.0,-286.25,0.0,51.0,127.5,21.75,-5.5,3
130.25,-0.75,-312.0,-2.0,77.0,166.75,17.5,-6.25,3
320.75,11.25,-358.0,0.75,93.75,186.5,11.75,-6.5,3
442.25,30.25,-347.75,-6.75,103.5,171.75,19.75,-15.5,3
125.75,28.75,-268.0,-22.75,96.5,88.0,16.75,-13.5,3
-55.75,48.25,-219.5,-27.75,82.25,48.75,9.75,-30.75,3
13.5,30.75,-110.25,-30.5,87.25,8.0,19.0,-30.0,3
42.75,-3.25,29.75,-32.25,93.5,-119.25,30.5,-16.75,3
140.5,-1.5,56.5,-47.0,95.5,-68.5,29.5,-27.5,3
76.75,6.75,-51.75,-43.75,90.0,27.5,33.75,-33.25,3
-9.75,17.5,-121.5,-8.0,76.25,65.0,38.75,-41.0,3
-86.75,2.75,24.25,9.5,80.0,96.75,41.0,-40.0,3
-125.0,24.75,113.0,7.5,76.25,58.5,49.0,12.75,3
-117.75,35.0,150.75,-9.5,56.75,60.5,42.75,54.25,3
-66.25,14.0,162.0,-2.5,39.75,90.5,34.25,32.25,3
-65.75,14.0,104.5,-10.5,39.0,100.0,24.5,63.0,3
-50.0,10.0,61.5,-11.25,34.75,74.5,30.25,108.5,3
204.25,10.5,-15.25,4.75,25.5,38.0,33.25,42.75,3
411.5,-1.0,-78.25,-13.5,16.0,32.5,28.25,-68.25,3
561.0,-9.5,-266.25,-14.25,7.75,-7.0,28.75,-81.5,3
605.75,-7.25,-314.75,-7.75,12.75,-71.5,32.25,-82.25,3
458.0,-12.5,-99.5,-10.0,23.0,-63.25,16.75,-186.25,3
364.0,-15.0,-267.5,-24.25,23.25,-6.75,16.75,-230.5,3
354.5,-27.75,-544.0,-39.5,32.75,28.0,17.5,-141.0,3
216.75,-29.5,-318.5,-41.75,32.75,26.5,11.25,-1.25,3
93.5,-22.75,19.0,-26.25,32.5,46.5,26.5,22.25,3
42.75,-20.25,30.5,-22.25,49.0,98.75,9.25,-0.75,3
-98.0,6.0,62.75,-34.75,46.25,110.25,-5.5,73.5,3
-247.0,19.0,120.5,-40.5,44.25,120.25,17.5,86.0,3
-193.5,15.5,118.5,-34.0,40.25,108.5,15.5,74.75,3
-8.5,-10.25,92.5,-35.25,10.5,75.5,5.75,90.5,3
127.25,-39.25,14.75,-31.0,-7.0,-14.25,9.75,63.25,3
186.5,-53.0,210.75,-2.25,-13.75,-74.75,2.25,55.75,3
32.25,-41.5,320.5,28.25,-11.5,-56.25,5.5,65.5,3
-146.5,12.25,243.75,35.25,-22.75,-90.75,19.5,54.25,3
-407.25,35.0,271.0,11.0,-36.75,-17.5,0.0,-22.75,3
-634.5,14.5,173.5,1.5,-32.25,46.5,1.5,-61.0,3
-763.5,7.5,98.5,-3.0,-45.75,0.75,2.0,-22.5,3
-805.25,14.5,117.5,5.75,-56.0,0.75,2.0,-87.75,3
-672.0,32.0,184.25,-7.5,-64.5,6.0,11.75,-42.25,3
-415.75,71.5,257.0,-36.25,-67.5,28.5,5.0,94.0,3
-10.0,68.25,234.0,-33.0,-67.0,42.5,6.0,46.0,3
196.0,59.0,-34.75,-35.75,-69.5,67.5,8.0,14.5,3
215.5,19.25,-419.25,-27.75,-75.75,66.5,7.75,5.5,3
-40.0,-20.0,-394.25,-12.0,-85.25,65.5,4.75,48.25,3
-261.25,-22.75,-255.25,-4.25,-94.0,28.75,4.5,98.75,3
-191.25,-33.0,-87.75,-4.0,-73.5,-3.75,-6.25,90.25,3
-210.75,-13.0,54.75,-20.5,-59.25,5.25,3.5,76.5,3
-211.0,-16.25,-125.25,-27.0,-48.75,-34.25,-6.25,29.75,3
-137.75,-38.25,-300.75,-37.75,-24.5,-31.5,-1.75,-22.25,3
30.5,-39.25,-247.75,-26.25,-19.25,8.0,4.75,-85.5,3
238.25,-20.25,-84.25,-13.0,-24.0,61.5,-10.0,-113.5,3
359.0,-2.0,43.75,-25.75,-4.0,110.25,3.75,-92.25,3
402.25,6.75,339.75,-22.5,31.0,139.5,9.5,-78.25,3
450.5,0.75,481.5,-33.75,29.0,117.0,10.5,-47.5,3
488.25,-1.5,338.25,-30.5,25.75,73.25,5.0,27.5,3
523.0,11.0,224.5,-16.0,13.0,51.25,1.5,96.75,3
388.5,9.25,-22.5,-30.75,17.75,-22.75,1.5,155.75,3
222.25,14.5,-148.5,-19.25,63.25,-88.75,8.5,143.5,3
243.25,9.5,-179.25,-12.0,85.5,-104.5,8.25,121.0,3
145.75,9.75,-226.75,-1.25,111.75,-87.5,20.75,81.0,3
36.0,13.0,-211.75,8.5,120.75,-98.25,18.25,3.75,3
-115.25,0.0,-221.0,1.75,100.0,-70.0,26.25,3.25,3
-212.75,-1.25,-300.75,-12.0,100.5,12.0,29.75,39.75,3
-156.5,-7.25,-282.5,-26.25,117.25,-22.5,22.25,46.5,3
-79.75,-5.5,-104.25,-23.0,119.5,-81.5,37.5,37.25,3
0.5,-15.0,34.0,-36.25,108.75,-76.75,15.5,40.0,3
-19.75,-2.0,276.5,-49.25,110.5,-137.25,20.25,27.25,3
-68.75,6.5,442.0,-38.0,100.0,-161.75,32.25,17.5,3
-180.0,5.25,436.75,-18.25,88.25,-92.75,29.5,7.25,3
-241.0,34.75,331.75,-18.75,87.5,-42.25,33.75,-9.25,3
-198.75,45.25,211.0,-24.75,81.0,10.25,29.5,-23.25,3
-163.25,40.5,88.25,-30.75,96.0,-6.75,19.25,-28.25,3
-154.25,45.25,-50.5,-60.0,98.5,-20.0,34.75,-47.75,3
-181.25,58.25,-147.25,-42.0,89.5,4.25,50.0,-43.75,3
-186.0,58.75,-322.5,-13.75,90.75,42.5,40.75,-28.75,3
-157.75,66.25,-286.5,-10.75,90.0,61.5,47.0,-27.5,3
-133.25,34.0,-207.75,2.0,83.25,75.0,50.0,-15.5,3
-179.25,1.0,-119.25,-6.5,79.25,91.0,77.25,-18.25,3
-208.0,-27.75,-19.75,-14.5,72.0,84.25,72.25,-3.5,3
-160.5,-45.25,-59.0,-15.75,59.0,104.75,63.0,20.25,3
-157.5,-38.25,-186.5,-15.0,74.25,100.25,69.75,19.75,3
-102.75,-81.0,-362.25,-3.0,83.5,78.25,54.0,11.0,3
-13.0,-91.5,-492.5,6.5,84.5,73.25,60.5,8.5,3
89.75,-78.75,-490.75,5.5,96.5,106.0,53.5,24.75,3
70.0,-76.25,-145.25,8.0,104.0,153.5,58.5,22.25,3
-203.25,-90.25,304.0,9.25,84.5,157.0,57.25,21.25,3
-304.25,-85.0,531.5,-14.75,71.75,92.0,54.0,31.5,3
-36.25,-8.25,498.75,-10.75,78.5,33.75,53.5,27.0,3
328.0,23.75,423.5,16.0,81.25,-112.25,48.75,26.75,3
538.0,30.25,365.25,24.25,100.25,-276.5,55.25,18.75,3
590.25,34.0,98.0,23.75,90.75,-151.75,53.0,34.0,3
542.0,52.5,28.25,29.0,69.0,51.75,66.5,34.25,3
369.5,67.75,-0.25,20.0,62.5,99.75,54.0,15.75,3
87.5,23.0,-422.0,18.0,52.0,48.0,53.5,6.5,3
-141.75,19.5,-599.5,39.5,71.25,-28.5,65.75,9.25,3
-174.25,33.75,-395.0,46.0,82.75,-79.5,57.0,2.0,3
-234.0,37.0,-185.0,37.75,62.0,-79.25,60.25,2.5,3
-332.25,38.25,-31.25,25.75,42.25,-44.5,50.5,14.25,3
-379.25,27.75,23.75,-4.25,36.25,40.0,39.75,21.75,3
-350.0,34.0,-43.0,-38.25,37.5,133.75,53.0,24.5,3
-271.0,30.75,-79.5,-88.75,50.75,165.25,50.75,31.25,3
-244.5,9.0,34.75,-101.75,74.5,220.0,43.75,19.75,3
-330.0,10.5,189.5,-83.0,70.25,199.0,24.0,13.25,3
-449.0,9.25,353.25,-77.0,73.0,102.75,3.25,-6.5,3
-351.75,-2.0,464.0,-59.5,83.75,60.0,10.75,-37.75,3
-234.5,-5.5,554.75,-24.5,99.0,-19.25,5.75,-15.0,3
-320.5,7.0,386.0,-4.75,96.0,-81.25,6.0,-14.75,3
-339.5,-7.25,54.0,-0.25,109.25,-140.0,4.75,-16.75,3
-65.5,-26.25,-49.25,10.0,138.5,-125.25,13.25,-47.25,3
273.75,-16.0,-56.5,-5.5,131.75,10.0,7.25,-52.75,3
624.5,-16.25,-4.25,-16.5,98.25,57.5,14.25,-63.25,3
874.75,-2.0,56.25,-25.75,52.75,-9.25,13.25,-107.5,3
722.75,-3.5,103.0,-35.25,26.5,1.75,8.75,-46.5,3
410.5,-20.0,11.0,-31.25,-1.5,31.0,17.75,26.0,3
254.75,-13.0,-208.0,-12.0,3.5,-4.0,7.25,14.5,3
279.0,-17.0,-525.0,5.75,16.0,24.0,12.75,34.75,3
204.5,-26.25,-789.0,-5.0,16.0,33.75,6.75,42.75,3
28.75,-6.5,-794.0,-0.25,22.25,14.5,13.25,-37.75,3
-124.25,6.0,-599.75,-19.25,29.75,33.25,22.75,-64.0,3
-226.25,-10.25,-243.5,-31.25,27.75,32.5,17.25,4.5,3
-327.5,-7.0,180.25,-31.0,20.25,76.75,7.5,-38.75,3
-501.75,-11.0,533.5,-46.75,7.75,120.25,6.5,-101.0,3
-607.0,-3.0,730.75,-39.5,-7.0,111.75,21.0,30.25,3
-518.75,-5.0,694.25,-42.75,4.5,119.0,35.0,75.5,3
-160.5,-0.75,587.0,-26.25,6.75,130.5,34.75,102.0,3
366.5,13.5,461.25,-30.0,9.75,137.75,40.0,82.25,3
751.0,4.0,263.25,-41.5,10.25,111.25,30.0,-13.0,3
687.5,19.0,93.25,-42.75,-10.0,44.25,14.5,40.25,3
817.25,37.25,-96.5,-40.25,-51.75,-25.25,29.75,78.75,3
785.5,52.5,-253.0,-15.75,-79.5,-87.25,21.75,64.0,3
545.75,43.5,-347.5,-0.25,-61.5,-144.5,21.25,44.75,3
736.5,19.0,-439.25,-9.25,-36.5,-156.25,13.25,5.25,3
580.25,-28.5,-539.5,-27.5,-13.0,-74.25,8.75,-44.5,3
45.0,-59.75,-658.25,-23.75,5.0,58.5,6.5,-73.0,3
-252.25,-51.5,-675.5,-15.75,19.75,107.5,6.0,-38.5,3
-306.0,-43.5,-517.5,-7.25,28.0,131.25,17.25,43.0,3
-327.0,-27.0,-261.5,-18.5,9.0,96.0,27.5,13.75,3
-303.75,-46.75,-29.0,-27.0,8.0,35.75,31.5,10.0,3
-277.25,-26.0,164.25,-17.25,-1.0,15.0,36.0,123.0,3
-294.75,-14.75,227.0,-21.25,-29.5,-15.0,48.0,156.5,3
-270.5,-24.5,249.0,-20.75,-39.75,-74.5,37.5,109.5,3
-369.75,-23.25,281.75,-30.75,-40.0,-121.5,34.0,49.5,3
-406.75,-28.5,204.5,-32.0,-40.25,-89.5,26.0,20.25,3
-406.0,-3.0,281.75,-25.25,-49.25,-79.75,21.25,-60.25,3
-275.0,26.0,412.25,-26.5,-51.0,-56.5,16.25,-161.5,3
-164.25,39.25,418.75,-25.5,-53.0,-36.0,8.5,-116.0,3
-175.5,32.5,323.5,-20.75,-61.5,4.25,18.5,-10.0,3
-217.0,31.5,139.5,-24.25,-60.75,-19.5,15.5,25.75,3
-239.0,19.25,21.5,-0.5,-68.75,-16.0,22.75,87.5,3
-164.0,4.5,-160.75,18.75,-69.5,108.5,24.25,134.25,3
-157.75,10.0,-274.0,22.0,-53.0,124.75,18.25,113.75,3
-86.5,27.25,-160.5,28.75,-67.0,159.75,33.25,93.0,3
-1.0,33.0,-202.5,20.0,-69.25,172.0,32.5,71.0,3
-40.0,11.75,-321.25,12.5,-51.25,166.25,17.25,14.75,3
-99.75,15.5,-396.25,-0.5,-42.5,161.0,13.75,-29.75,3
-170.75,21.5,-395.25,-8.75,-40.75,90.5,12.0,-1.25,3
-183.5,29.0,-185.75,-10.0,-32.0,41.0,19.5,11.25,3
-132.0,39.25,145.25,-24.5,-13.25,-4.5,17.25,-1.5,3
-132.75,12.5,286.75,-65.0,-28.5,-21.5,8.0,5.75,3
-233.25,15.5,213.75,-67.75,-35.5,-14.0,10.0,21.5,3
-101.0,-5.5,226.75,-51.5,-45.25,-13.0,17.5,-2.5,3
124.5,-23.5,217.25,-68.0,-49.0,-19.25,14.0,15.5,3
179.0,-26.75,115.5,-83.25,-42.75,-63.25,12.0,57.75,3
172.25,-60.25,103.5,-89.75,-57.5,-80.25,24.0,41.25,3
55.25,-43.0,116.0,-38.75,-44.0,-66.75,21.5,48.25,3
51.75,-32.25,45.5,-4.75,-30.0,-9.0,19.5,52.0,3
112.0,-20.75,-45.5,-15.0,-10.75,52.5,4.0,61.5,3
167.25,-7.25,-168.25,-7.0,2.0,34.75,-6.5,38.0,3
219.75,4.0,-371.75,-1.0,7.75,14.5,12.5,32.25,3
220.25,33.25,-507.5,-8.25,10.0,18.0,22.75,43.5,3
257.0,29.0,-671.5,-12.25,5.5,35.75,19.25,22.25,3
222.75,34.0,-898.5,14.25,13.5,73.0,13.25,14.0,3
55.0,36.5,-931.0,16.75,-5.25,86.5,21.25,16.0,3
-286.25,31.75,-635.5,24.0,-12.25,86.0,22.75,31.0,3
-478.0,14.5,-149.75,30.25,-7.75,102.5,19.25,44.5,3
-443.75,-0.5,238.75,24.25,-9.0,81.25,15.5,53.25,3
-344.25,11.25,500.25,20.0,-7.25,67.25,10.0,49.5,3
-133.5,11.0,621.25,-6.0,-22.5,10.5,6.5,57.75,3
-42.5,7.5,632.0,8.75,-33.75,-107.0,6.25,64.75,3
-130.75,13.25,527.0,2.75,-41.0,-133.5,6.5,56.5,3
-293.0,10.25,416.0,-19.75,-44.5,-80.0,-2.5,33.75,3
-319.0,-2.5,411.25,-35.0,-30.75,-33.0,14.25,10.5,3
-279.25,-16.0,490.75,-48.0,-36.5,-43.0,29.5,-21.25,3
-347.75,-21.5,604.5,-41.25,-55.25,-23.75,44.75,-40.5,3
-371.25,-0.5,592.75,-44.0,-42.0,59.75,36.25,-38.75,3
-89.0,17.0,489.75,-47.0,-27.0,69.75,36.0,-14.75,3
311.75,-0.75,273.0,-31.75,-12.25,48.0,39.5,27.25,3
865.75,-1.0,90.25,-21.0,7.0,41.75,35.75,38.75,3
1364.75,17.5,125.25,-17.75,29.75,51.0,55.0,21.25,3
1277.0,1.75,224.0,10.25,49.0,65.75,45.0,13.0,3
1213.0,-31.0,356.5,16.5,26.0,63.75,42.5,33.75,3
1126.75,-33.75,496.75,-10.5,21.75,55.0,45.75,36.25,3
736.0,-32.25,486.25,-15.5,23.25,37.25,33.75,19.5,3
313.5,-13.75,334.5,-9.25,15.0,87.75,21.25,20.25,3
74.25,1.25,178.25,-1.25,23.25,155.5,19.0,23.5,3
-365.25,-9.25,6.5,-0.25,23.75,134.75,16.75,31.25,3
-912.75,-3.0,-126.75,11.25,25.75,52.5,16.5,41.75,3
-956.5,5.75,-253.0,15.75,22.0,-14.75,19.75,41.5,3
-917.5,9.0,-306.25,-4.75,28.5,-91.5,20.0,36.0,3
-749.25,-1.75,-286.75,-13.0,46.0,-132.25,29.0,41.25,3
-554.25,-16.75,-278.5,-15.0,25.0,-127.75,19.5,50.5,3
-478.5,-11.5,-281.0,-17.75,3.25,-102.25,24.5,46.75,3
-451.25,-5.25,-316.25,-8.5,1.25,-28.5,0.75,43.75,3
-516.75,-3.0,-336.0,-19.0,-11.75,54.5,-15.0,29.25,3
-452.25,16.5,-356.5,-28.0,-16.25,194.25,-10.75,14.25,3
-110.75,4.25,-396.5,-35.5,-5.5,212.25,-13.75,-7.5,3
577.75,-14.25,-454.25,-53.0,1.5,80.75,11.0,-48.25,3
929.0,-4.75,-497.5,-46.75,4.25,47.75,-8.5,-44.75,3
795.0,-1.25,-578.5,-37.75,4.25,27.75,-12.5,-2.75,3
707.5,4.75,-528.0,-21.75,-6.25,-45.5,-0.5,37.75,3
560.75,2.5,-216.25,-25.5,-12.25,-76.0,-1.75,72.5,3
294.25,9.0,128.75,-23.5,-14.5,-111.5,-11.0,83.75,3
-98.5,7.5,503.25,3.25,-6.5,-125.25,-14.0,82.0,3
-273.75,4.25,787.75,5.5,-4.0,-126.0,-10.5,27.25,3
-314.75,8.0,949.5,9.5,6.25,-39.25,-3.75,-78.25,3
-473.5,-2.75,949.25,20.0,20.5,42.75,-10.75,-77.5,3
-525.5,-10.75,755.75,15.0,31.5,-3.75,-23.25,-82.75,3
-495.75,-6.0,500.0,-12.0,48.25,-20.25,-1.0,-131.25,3
-406.75,12.5,235.25,-40.5,67.0,-29.75,-5.75,-67.0,3
-378.0,31.0,-23.0,-34.0,79.5,-89.25,0.75,5.25,3
-329.75,18.25,-377.5,-11.5,77.75,-145.5,19.0,65.0,3
-248.75,3.5,-618.0,-8.75,68.25,-75.75,11.25,82.25,3
-92.25,11.25,-634.25,-16.25,51.75,60.5,11.5,95.5,3
190.25,32.0,-561.75,-9.25,54.25,109.75,21.5,37.5,3
345.5,42.75,-392.5,-12.0,44.25,92.5,26.0,-109.75,3
255.25,44.75,-324.0,-2.25,42.25,73.0,34.75,-146.5,3
236.0,20.5,-397.0,-11.0,52.75,61.25,39.0,-91.0,3
62.5,-29.0,-502.5,-29.25,57.75,32.75,37.5,-54.0,3
-246.0,-9.5,-432.75,-19.5,63.25,9.75,39.5,-99.5,3
2.25,22.75,-270.25,-46.25,44.0,-24.5,29.0,-140.25,3
247.0,-0.5,-168.25,-63.75,35.25,-28.5,31.5,-86.25,3
429.5,-43.25,70.75,-58.25,40.25,28.75,32.5,-27.25,3
656.5,-66.25,236.75,-41.5,44.0,94.0,36.0,5.75,3
709.5,-44.75,257.5,-28.0,73.25,119.5,55.5,41.5,3
462.25,-25.0,180.5,-26.5,76.5,101.25,43.25,38.0,3
15.0,-17.5,74.75,-24.0,66.5,108.25,32.75,43.25,3
-158.0,-14.0,-63.75,-8.5,70.75,135.25,36.0,28.0,3
-306.25,-13.5,-138.25,-5.0,61.5,150.0,21.0,-18.25,3
-329.5,-19.25,-166.75,-28.0,52.75,141.0,31.25,-1.0,3
-324.0,-33.25,-283.75,-23.0,40.75,143.75,37.0,-20.75,3
-389.5,-27.25,-329.0,-17.75,44.0,169.0,27.25,-37.0,3
-496.0,-18.75,-208.75,-9.0,55.0,179.0,39.75,-48.0,3
-536.25,-11.25,-252.75,-10.75,55.75,116.5,44.5,-53.5,3
-384.0,1.0,-251.25,-3.5,41.5,61.25,45.5,-65.0,3
-78.0,32.25,192.0,-6.0,29.75,56.0,29.75,-70.25,3
429.75,59.0,595.75,-30.25,38.25,8.0,15.5,-42.5,3
408.5,62.75,753.0,-24.0,30.0,-37.0,19.75,-55.0,3
-235.5,60.75,749.0,-18.25,28.0,-95.25,6.75,-27.0,3
-424.5,39.5,497.0,-22.5,56.75,-134.5,19.5,46.25,3
-393.5,9.25,191.75,-35.5,81.0,-78.0,19.5,69.75,3
-448.0,-24.75,-64.25,-1.0,93.75,-11.75,13.5,45.5,3
-83.25,-40.25,-235.5,24.25,92.5,24.5,18.75,48.25,3
315.0,-40.5,-337.0,19.75,99.0,7.75,31.0,68.5,3
599.25,-55.25,-361.75,47.25,86.25,-30.5,35.25,80.0,3
650.5,-56.75,-326.0,53.5,73.0,-2.25,23.75,58.5,3
569.0,-31.75,-305.5,54.0,102.75,9.25,23.75,87.75,3
528.0,-32.5,-272.75,30.5,121.0,11.0,17.25,126.0,3
350.25,-45.25,-177.0,0.25,135.0,35.25,32.25,86.0,3
183.0,-17.5,-61.25,-13.25,140.0,54.75,36.25,73.5,3
-148.75,-0.75,-31.25,-32.25,114.5,75.0,30.0,32.5,3
-316.75,21.75,-10.0,-33.0,76.0,51.5,36.75,27.25,3
-180.5,13.75,-58.25,-51.75,71.0,49.25,30.25,7.25,3
-160.75,-2.25,-279.0,-52.75,76.25,52.0,38.75,14.5,3
-135.5,15.0,-597.0,-29.75,70.75,38.0,30.25,74.5,3
-153.0,3.25,-755.5,-36.25,66.25,34.5,23.25,78.25,3
-177.75,-10.5,-556.5,-37.75,46.75,28.0,31.0,124.75,3
-223.5,-25.25,-268.5,-30.5,47.75,39.5,22.75,95.5,3
-243.5,-26.0,132.0,-14.5,46.75,58.5,27.75,80.0,3
-194.5,-13.75,494.0,-26.0,43.5,56.75,9.0,107.25,3
-84.0,2.0,593.25,-29.75,38.0,51.25,10.25,74.5,3
88.5,21.5,552.75,-24.0,31.25,54.25,17.25,28.75,3
29.75,19.25,309.0,-44.0,22.5,48.5,8.5,49.75,3
-292.25,18.0,-45.75,-53.5,10.25,54.25,4.5,95.75,3
-606.0,7.5,-444.5,-44.75,3.25,11.25,-4.5,71.0,3
-672.0,-14.5,-577.5,-71.75,5.75,-29.5,-7.75,71.5,3
-534.0,-30.0,-486.25,-54.75,18.75,-28.0,-4.75,69.25,3
-181.5,-42.25,-376.25,-31.5,31.75,-95.5,6.0,74.25,3
204.5,-58.0,-72.75,-45.0,45.25,-143.0,9.5,97.75,3
494.25,-54.0,23.5,-40.75,44.5,-35.25,11.0,101.5,3
580.5,-30.25,51.25,-34.75,46.5,100.25,4.75,89.25,3
406.75,-9.0,251.75,-12.75,32.0,167.5,-9.75,76.0,3
355.0,1.75,299.75,6.25,29.0,188.25,-3.75,71.0,3
365.75,15.75,469.75,14.0,27.0,153.5,3.5,25.75,3
247.5,41.5,631.5,-2.5,21.75,82.0,20.25,-18.0,3
211.25,56.5,677.5,-4.75,47.5,44.75,37.0,-53.75,3
205.0,65.0,642.5,-0.25,43.5,5.25,30.25,-75.25,3
116.25,54.0,515.5,-6.5,47.0,-88.25,28.5,-78.0,3
-38.75,44.0,386.5,2.5,42.0,-182.5,30.5,-60.5,3
-32.25,32.75,140.5,-13.25,45.75,-267.0,25.5,-12.25,3
-109.75,1.75,0.5,-10.75,53.0,-294.25,26.5,42.25,3
-289.75,-4.25,-206.0,5.75,17.0,-244.0,39.75,69.5,3
-291.0,-13.0,-516.5,3.5,8.25,-138.5,31.75,27.0,3
-434.75,-22.5,-502.5,-14.5,18.25,-3.75,19.0,-5.0,3
-333.75,-22.5,-370.0,-17.5,33.75,118.75,11.75,4.75,3
-216.0,-24.5,-273.75,-8.5,22.5,224.5,16.25,-13.0,3
-159.0,-0.75,-47.25,-5.75,19.0,225.25,20.5,-10.25,3
57.75,33.25,269.0,5.5,42.25,206.5,10.25,6.5,3
243.75,37.5,431.75,12.75,33.25,143.0,3.5,-6.5,3
261.5,34.75,290.0,27.5,33.25,19.0,9.0,-4.0,3
-39.75,55.25,36.5,30.25,51.25,-57.0,28.0,-24.0,3
-161.25,68.5,-93.5,13.25,52.75,-143.75,23.0,-39.5,3
-310.25,55.5,-261.5,3.25,44.75,-38.5,22.0,-15.5,3
-491.75,59.75,-387.0,-4.25,57.75,165.75,22.75,-9.75,3
-418.5,75.75,-262.0,-4.0,69.5,177.5,21.75,-11.25,3
-234.5,71.0,-154.0,12.75,53.75,317.5,14.5,0.75,3
181.75,57.75,-82.0,-5.5,20.5,355.5,21.0,35.5,3
596.5,45.75,-13.5,-34.5,12.75,253.25,13.0,82.0,3
850.5,27.75,-41.0,-26.25,18.5,202.0,6.25,107.25,3
690.0,20.25,-156.0,-36.5,22.75,73.0,11.0,123.25,3
251.75,17.25,-282.0,-40.75,37.0,-22.5,14.5,82.5,3
-8.25,-0.25,-329.75,-44.75,49.75,-138.75,11.0,-53.0,3
-212.75,-17.0,-178.0,-45.25,63.75,-203.0,20.25,-143.5,3
-343.25,-31.25,57.5,-47.25,60.75,-287.5,15.0,-67.5,3
-396.5,-55.0,107.25,-38.5,55.5,-314.0,4.75,-13.25,3
-396.0,-64.0,82.5,-17.25,58.75,-159.25,24.0,22.75,3
-229.5,-60.0,-72.0,-18.25,57.5,34.25,18.0,79.75,3
-102.5,-59.0,-246.25,-4.0,81.5,96.0,27.0,80.75,3
33.25,-56.25,-345.0,20.25,103.0,123.5,22.0,104.5,3
255.5,-46.75,-441.25,40.5,108.75,150.75,12.5,-59.75,3
344.25,-40.0,-408.25,47.5,127.0,120.0,16.5,-177.5,3
271.0,-54.5,-273.0,49.75,101.25,95.25,18.25,16.25,3
164.5,-63.5,-48.5,38.75,89.25,84.75,21.25,78.5,3
71.25,-53.0,149.25,9.0,89.25,80.5,6.5,26.75,3
-41.0,-20.75,208.25,-10.5,72.5,31.5,9.25,33.25,3
-217.0,-1.25,-22.75,-5.75,105.5,54.5,22.5,23.25,3
-453.5,10.25,-473.25,-13.5,84.25,68.25,21.25,3.25,3
-577.75,6.25,-688.25,-13.25,39.25,64.5,17.75,-15.0,3
-494.5,9.5,-708.0,-21.75,18.25,57.0,16.25,-13.25,3
-208.25,15.5,-776.75,-40.5,10.0,-9.5,20.75,-11.25,3
126.75,17.75,-603.0,-26.0,-16.5,-37.5,30.0,-7.5,3
322.0,25.5,-207.25,-22.5,-56.5,-8.5,26.0,5.0,3
336.25,29.75,140.75,-11.5,-96.5,34.25,28.75,5.25,3
309.5,34.5,681.25,-34.0,-116.5,8.0,26.0,13.25,3
361.75,27.5,977.0,-38.5,-110.0,14.75,23.5,4.25,3
230.5,39.5,957.75,-34.0,-108.75,42.0,35.25,-3.5,3
4.25,38.75,841.25,-28.0,-94.5,52.0,42.75,10.75,3
-128.75,13.0,489.75,-15.75,-91.0,43.5,36.0,18.75,3
-255.75,-27.25,152.75,-8.0,-87.5,40.25,28.75,9.0,3
-326.25,-28.5,-78.0,33.75,-96.5,54.75,37.25,6.25,3
-332.5,-1.25,-50.25,54.5,-99.75,38.25,29.0,-1.75,3
-312.0,-7.25,-19.0,68.0,-77.75,34.25,31.0,-7.5,3
-330.5,2.5,-60.25,68.0,-63.5,38.25,32.5,-26.5,3
-316.75,1.5,-83.25,64.75,-55.25,31.0,22.75,-35.75,3
-265.25,-16.25,-91.25,63.5,-43.25,20.5,28.25,-23.75,3
-125.0,-2.5,-19.75,40.5,-35.0,33.0,26.25,-51.5,3
46.75,12.5,54.5,23.5,-35.75,47.5,28.25,-71.25,3
151.25,15.0,153.25,7.75,-45.0,42.5,28.0,-71.5,3
282.75,9.5,153.25,10.25,-44.75,24.75,33.0,-47.25,3
312.0,8.25,85.0,16.25,-32.25,16.5,39.0,-36.5,3
140.0,26.75,13.75,12.0,-5.25,17.5,40.0,-15.75,3
-75.25,10.0,-87.25,16.0,11.0,16.0,42.25,-0.75,3
-279.0,-12.0,-146.75,0.5,23.0,-2.0,30.75,-1.5,3
-358.75,-9.75,-173.5,7.0,30.5,8.0,28.5,20.75,3
-145.25,-19.25,-155.75,13.25,29.75,5.75,24.0,15.75,3
199.5,-16.75,-167.0,9.0,43.0,-10.25,22.75,-11.0,3
525.5,1.0,-317.0,3.75,26.25,7.0,30.0,-20.75,3
589.75,-4.75,-384.5,-26.5,23.5,-4.0,29.25,-21.5,3
404.25,-26.75,-311.75,-44.75,27.0,14.75,36.25,-15.5,3
135.0,-29.5,-27.0,-29.5,12.5,20.0,33.5,-12.5,3
-184.5,-25.75,370.75,7.75,-3.5,-5.25,17.5,-10.75,3
-597.25,-32.25,579.0,58.25,-21.0,20.0,27.25,-2.5,3
-953.75,-6.25,714.25,132.0,-35.5,24.25,17.75,-12.0,3
-863.75,31.75,716.0,155.75,-47.75,58.0,18.25,4.0,3
-517.0,52.25,607.25,195.0,-48.75,100.5,12.75,5.25,3
-156.25,73.5,451.0,253.0,-46.5,82.0,5.75,2.5,3
100.0,80.25,281.25,281.5,-42.5,23.75,16.0,11.5,3
158.75,83.5,132.75,276.0,-28.75,1.75,0.75,7.75,3
261.25,75.5,86.0,258.0,-8.0,-33.75,8.75,22.0,3
399.25,61.75,55.75,250.75,-6.25,-53.25,5.5,11.0,3
356.0,74.0,14.5,221.75,-8.25,-11.0,2.5,-14.5,3
455.75,99.5,55.75,192.0,-23.25,-79.5,-0.25,-16.5,3
589.0,91.5,199.5,205.25,-12.25,-142.25,-16.75,29.5,3
298.0,62.5,406.5,284.5,14.0,-215.5,-8.5,42.25,3
-201.5,41.5,423.25,269.0,37.5,-254.25,1.75,54.25,3
-281.75,32.25,368.0,265.0,118.5,-119.25,10.5,81.5,3
-8.75,8.0,308.5,259.5,231.75,35.5,8.25,77.75,3
299.5,-21.75,229.25,249.0,335.75,96.5,13.25,93.25,3
537.25,-12.25,170.25,244.0,418.75,100.75,27.25,67.75,3
531.75,-15.5,99.75,214.0,497.5,79.75,45.0,-25.25,3
251.0,-39.5,56.75,229.75,571.0,39.75,50.0,-162.25,3
-198.0,-34.0,5.75,241.0,621.0,-17.5,54.5,-283.75,3
-555.25,-16.0,5.0,230.25,627.0,-93.0,64.5,-367.5,3
-758.5,-20.75,54.0,201.25,597.0,-157.0,33.25,-417.0,3
-1007.5,-7.75,81.75,170.25,587.0,-214.0,27.0,-383.0,3
-1173.75,6.75,115.0,101.0,531.0,-114.25,32.0,-388.75,3
-1222.0,-17.5,95.75,71.75,502.75,182.25,20.0,-423.25,3
-1291.25,38.5,-41.25,95.0,471.25,420.5,19.75,-442.5,3
-1045.25,170.25,-203.75,94.75,355.25,544.5,26.75,-395.75,3
-316.25,273.75,-257.75,14.75,157.25,617.25,27.25,-319.25,3
395.25,332.75,-323.5,-33.0,5.75,630.75,55.5,-270.5,3
884.0,380.0,-384.0,-57.5,-113.0,490.5,140.5,-187.5,3
1050.5,382.75,-300.5,-120.75,-226.5,264.25,227.25,-166.75,3
934.75,351.5,-256.0,-134.5,-301.25,76.5,292.0,-179.75,3
762.75,332.25,-243.75,-165.75,-374.5,-83.0,358.25,-247.5,3
548.25,351.75,-239.5,-181.25,-406.5,-236.0,407.0,-354.5,3
453.5,369.25,-194.0,-229.75,-447.75,-307.25,432.0,-273.0,3
447.75,372.75,-54.5,-312.0,-459.25,-244.75,452.75,-108.0,3
241.5,354.25,23.0,-429.0,-462.5,-178.25,429.75,-66.0,3
74.5,273.5,141.5,-552.5,-467.25,-196.25,312.5,-88.75,3
120.75,152.75,229.25,-624.5,-470.5,-207.5,194.25,-21.0,3
125.75,73.75,210.5,-668.75,-477.0,-192.5,113.0,50.25,3
37.75,27.5,348.0,-710.25,-453.75,-151.0,38.25,105.75,3
-123.5,-21.75,457.25,-746.25,-434.0,-85.75,-19.5,190.25,3
-144.25,-70.75,378.0,-738.0,-421.25,-70.0,-76.25,250.5,3
-19.75,-113.75,182.5,-737.0,-410.75,-72.5,-117.75,274.5,3
-34.5,-179.75,1.0,-745.0,-410.5,-49.5,-145.75,372.0,3
8.25,-257.5,-106.75,-717.5,-411.75,-39.0,-168.0,455.0,3
146.75,-256.5,-137.5,-678.0,-415.0,-37.0,-186.25,474.0,3
175.75,-247.5,-60.25,-612.5,-404.5,-27.5,-194.0,516.75,3
264.0,-261.25,9.25,-570.5,-367.0,-33.5,-203.25,551.0,3
543.25,-281.0,138.75,-532.5,-305.75,22.0,-200.25,595.75,3
865.5,-322.75,169.0,-454.0,-268.0,63.75,-191.75,559.5,3
1074.5,-334.25,145.5,-408.5,-239.0,64.75,-184.5,526.75,3
918.0,-312.5,89.5,-387.5,-223.25,100.0,-177.5,514.25,3
744.25,-297.5,6.25,-358.5,-205.0,87.25,-174.0,447.75,3
666.5,-289.5,8.5,-341.25,-166.0,16.75,-165.25,413.25,3
248.0,-240.5,17.0,-295.25,-150.5,-45.0,-165.25,393.75,3
-211.5,-215.0,66.75,-267.75,-126.5,-140.0,-167.75,365.75,3
-410.0,-206.25,-87.0,-242.25,-107.5,-75.75,-163.75,344.75,3
-502.25,-181.25,-208.5,-214.25,-94.5,27.5,-137.25,322.0,3
-573.25,-180.75,-313.25,-192.25,-38.25,-29.25,-131.0,270.5,3
-331.0,-181.5,-646.0,-158.5,-2.25,-41.75,-129.25,250.5,3
-6.0,-166.0,-584.75,-143.0,8.0,-112.0,-116.0,252.75,3
280.5,-169.25,-294.0,-133.5,23.25,-161.0,-110.5,215.25,3
373.5,-181.0,-147.25,-109.5,46.5,-98.5,-86.75,204.25,3
111.5,-153.75,-175.5,-89.0,61.25,-46.75,-86.75,206.75,3
50.5,-115.0,-316.75,-75.5,70.0,-25.5,-73.25,188.75,3
-94.0,-106.0,-416.0,-47.25,76.25,-57.75,-55.5,87.0,3
-200.0,-79.75,-433.25,0.25,79.75,-56.5,-44.25,50.5,3
-159.75,-53.75,-187.25,48.0,79.75,-53.5,-22.0,56.75,3
-229.0,-42.0,98.25,61.25,84.75,-72.75,-29.75,19.75,3
-271.5,-18.25,390.0,84.5,97.0,-81.0,-16.75,3.25,3
-297.0,4.0,619.0,91.25,102.75,-119.25,-16.75,-74.75,3
-266.75,-0.75,655.75,91.5,108.5,-140.75,-30.5,-105.25,3
-346.25,-12.5,578.75,121.0,109.0,-68.75,-8.0,-33.75,3
-476.0,-13.25,346.0,127.75,119.0,10.0,1.25,-23.25,3
-628.5,-20.75,71.75,158.25,140.75,36.5,1.75,-53.75,3
-680.5,-21.5,-115.25,177.25,140.25,65.0,15.0,-57.0,3
-512.5,-14.5,-273.75,196.0,124.25,73.75,13.75,-96.25,3
-241.0,-10.75,-410.25,196.25,120.75,66.0,13.5,-106.25,3
110.75,-14.75,-454.25,180.5,99.5,41.75,6.5,-90.75,3
473.25,-18.25,-449.5,161.0,87.0,2.75,-1.5,-89.5,3
767.5,-3.0,-370.75,95.0,122.25,27.0,12.5,-80.25,3
788.0,-11.0,-307.25,98.0,103.25,11.0,6.0,-78.0,3
465.75,-21.25,-124.5,180.0,61.0,-75.0,6.0,-55.75,3
217.0,-0.5,4.0,147.5,104.0,-6.75,23.25,-119.0,3
58.75,-1.25,-13.0,128.75,72.25,63.25,22.25,-108.25,3
-229.75,-18.75,-62.0,149.75,86.25,78.75,34.75,-56.75,3
-392.75,-4.5,-157.5,154.25,107.5,107.5,40.0,-78.25,3
-311.5,5.5,-214.75,174.25,85.5,121.0,38.5,-53.75,3
-142.25,4.0,-293.75,155.5,99.0,155.0,42.25,-52.75,3
-37.75,6.75,-338.5,188.5,75.75,165.0,53.25,-2.75,3
49.75,23.25,-311.25,155.25,88.0,189.25,54.0,67.25,3
-0.5,53.5,-263.5,108.75,67.5,190.0,46.75,66.75,3
-64.0,70.25,-202.5,78.75,73.0,167.25,49.25,71.0,3
-98.5,66.5,-128.25,62.0,71.0,168.75,57.75,80.0,3
-293.25,53.75,-111.75,82.5,64.5,139.5,67.25,33.25,3
-383.75,48.25,-66.5,87.75,77.75,70.0,79.25,-67.25,3
-259.0,28.0,24.0,92.75,68.75,48.75,80.25,-55.5,3
-77.25,5.0,106.0,85.0,62.5,121.75,81.0,37.75,3
-113.25,7.25,156.75,91.75,58.25,127.0,82.5,19.25,3
-192.75,11.75,110.0,84.25,77.75,119.5,63.25,42.0,3
-45.0,10.75,-59.5,83.5,88.5,124.25,66.25,93.0,3
108.75,32.75,-93.75,79.25,90.0,119.75,76.5,34.25,3
191.75,45.0,70.0,97.0,85.75,122.25,71.0,43.0,3
136.25,54.0,424.25,92.5,102.25,24.5,66.25,59.5,3
17.5,51.5,666.25,84.75,106.0,84.0,69.25,0.25,3
31.0,34.75,594.5,88.75,101.25,150.25,68.5,48.25,3
-101.75,33.5,458.75,83.5,96.75,71.5,63.25,42.5,3
-190.0,20.5,268.5,85.0,77.25,-18.75,54.25,11.5,3
-236.75,29.25,50.0,66.75,73.75,-96.25,55.5,59.5,3
-389.0,31.5,-235.75,61.25,60.5,-58.25,47.5,130.0,3
-517.0,49.25,-329.25,56.0,60.5,105.5,42.75,154.0,3
-619.0,43.5,-390.5,44.5,40.0,248.25,33.25,85.25,3
-418.5,33.25,-516.0,56.0,32.0,193.75,30.5,54.75,3
-89.5,57.75,-322.5,87.0,54.5,176.25,43.0,-90.75,3
217.5,57.75,-33.75,94.0,56.0,151.25,42.75,-133.0,3
594.5,64.25,10.25,71.75,51.25,68.0,32.5,-68.5,3
803.0,39.5,-32.75,36.75,47.0,44.75,20.25,-5.0,3
732.5,11.75,4.0,9.75,53.0,87.5,23.0,59.25,3
589.25,3.75,66.0,-6.25,55.25,1.75,21.0,75.0,3
382.75,10.5,137.25,-12.25,48.75,-203.25,14.0,124.75,3
69.0,14.25,172.5,-8.75,43.5,-187.25,14.0,58.75,3
25.25,11.5,198.5,-17.75,43.75,-147.25,16.5,74.0,3
61.5,6.0,205.5,-25.0,47.5,-75.25,12.0,83.5,3
-81.5,-13.0,201.75,-28.5,45.5,5.0,15.25,17.75,3
-180.25,-9.25,154.75,-6.25,49.5,23.25,23.25,2.75,3
-279.25,-18.25,-99.5,15.0,60.25,-27.25,27.75,11.5,3
-308.75,-15.0,-455.0,8.0,67.0,-55.75,32.0,48.5,3
-259.25,3.0,-589.0,16.75,68.75,-3.25,26.0,39.25,3
-170.75,5.0,-494.75,10.25,69.25,-0.75,24.25,-12.75,3
-50.75,20.25,-384.0,13.5,66.5,3.25,25.5,-49.25,3
-96.0,40.5,-249.25,17.25,58.75,63.75,24.5,-23.0,3
-85.75,54.0,-233.5,-1.5,69.75,111.0,26.0,18.25,3
38.25,54.5,-199.25,-19.25,68.5,102.75,23.75,28.0,3
32.5,44.5,-53.25,-42.5,60.0,112.5,24.5,25.25,3
148.75,43.25,22.25,-48.5,68.5,107.5,34.0,38.75,3
204.25,11.0,147.25,-37.75,61.75,129.75,35.5,43.25,3
171.75,-10.0,275.75,-34.75,44.5,185.5,24.25,51.0,3
117.25,-20.25,397.0,-34.5,40.25,213.0,29.25,39.25,3
-61.0,-33.0,422.0,-23.5,34.75,109.5,35.25,-20.0,3
-174.75,-31.0,342.5,-20.0,39.75,-49.25,37.25,-56.25,3
-329.5,-23.25,199.5,-10.0,36.75,-206.0,21.5,-112.0,3
-424.75,0.0,24.75,-0.75,31.25,-265.5,27.0,-161.0,3
-410.0,-1.75,-53.0,0.5,55.0,-127.5,35.0,-143.0,3
-426.0,-14.5,-126.25,-4.75,51.75,-111.5,27.75,-174.25,3
-488.5,-14.0,-119.75,-29.5,51.25,-180.5,30.5,-178.5,3
-452.25,3.25,-34.75,-33.25,51.25,-210.5,20.0,-124.0,3
-303.25,23.5,95.25,-29.5,68.5,-156.5,40.0,-33.75,3
-158.75,26.0,112.0,-19.5,71.5,-29.0,45.0,25.5,3
-39.5,13.0,29.25,-3.75,22.5,55.25,39.0,-17.75,3
66.5,2.75,-11.25,3.0,10.75,103.75,32.75,-11.75,3
138.5,10.75,-67.0,-4.0,15.75,127.75,36.0,-13.0,3
269.25,17.5,19.25,-27.25,36.75,184.5,52.0,-3.75,3
468.0,41.25,138.75,-19.75,58.25,186.5,36.75,-1.25,3
540.75,50.0,215.5,-20.5,49.75,152.75,37.75,-14.5,3
672.25,51.25,163.25,-12.0,38.0,74.25,37.0,-7.75,3
676.75,27.25,-117.75,-15.5,31.75,18.25,31.25,-46.0,3
454.25,19.25,-348.0,-31.0,23.5,18.5,25.25,-87.0,3
120.25,19.5,-544.0,-18.0,20.5,-85.5,17.25,-80.25,3
-73.5,7.25,-640.0,-20.5,17.5,-47.0,13.25,-49.5,3
-156.75,8.5,-603.25,-19.75,9.75,2.0,19.5,-80.0,3
-239.25,-6.25,-393.75,-31.0,13.5,-84.0,19.5,-65.75,3
-174.75,5.5,-34.0,-30.0,6.25,-14.25,13.5,-5.25,3
-263.5,7.75,36.0,-23.5,24.25,29.0,16.0,52.0,3
-346.75,-5.5,8.5,-42.75,38.25,15.75,7.0,122.75,3
-364.5,-32.0,151.75,-49.75,23.25,16.75,10.5,102.0,3
-352.0,-28.5,290.25,-53.5,31.75,0.0,9.0,-3.25,3
-308.75,-15.75,450.0,-41.0,35.5,27.0,25.5,-22.75,3
-340.25,-19.0,493.0,-20.75,33.25,58.5,12.5,107.75,3
-357.5,-47.25,481.0,-15.25,28.25,59.0,-90.25,237.0,3
-379.75,-146.25,482.25,-17.75,17.25,69.0,-216.5,263.25,3
-442.5,-231.5,274.5,-102.5,13.0,124.75,-309.75,342.75,3
-469.5,-321.5,-115.5,-251.25,5.75,103.0,-376.75,475.75,3
-321.25,-366.75,-340.5,-300.5,3.75,42.75,-364.0,435.5,3
-1.0,-333.25,-227.75,-282.75,1.75,13.25,-331.5,386.5,3
471.0,-349.0,-109.5,-312.75,-8.0,22.25,-360.5,391.0,3
664.0,-370.0,188.0,-356.75,5.75,18.75,-337.0,301.25,3
225.25,-383.25,446.75,-403.0,20.0,-97.75,-269.5,257.0,3
-248.75,-374.75,453.0,-431.0,5.5,-232.5,-154.75,307.25,3
-6.25,-368.5,598.75,-479.25,-52.5,-410.5,-68.75,420.0,3
692.25,-371.5,550.0,-493.75,-220.5,-511.25,3.5,501.5,3
1299.75,-298.25,385.0,-453.0,-408.75,-465.25,68.25,532.0,3
1691.0,-174.0,102.75,-425.25,-527.0,-315.0,93.5,472.25,3
1589.25,-43.25,-119.5,-395.25,-599.0,-127.0,149.5,324.5,3
1292.75,64.75,-82.0,-365.75,-551.5,-7.0,175.5,165.5,3
886.25,165.0,-116.75,-333.75,-472.25,86.25,205.5,136.25,3
448.25,237.0,-87.0,-324.5,-437.0,99.0,216.0,240.25,3
-3.0,270.75,-140.0,-288.75,-389.75,174.0,215.0,126.0,3
-406.5,326.25,-220.75,-175.75,-307.75,181.0,243.75,-73.5,3
-494.0,348.5,-213.75,-78.75,-245.5,88.0,246.0,-154.0,3
-667.75,337.25,-250.25,-78.5,-253.75,83.25,238.25,-252.0,3
-658.5,354.75,-271.5,-46.0,-179.25,122.75,240.25,-428.0,3
-447.5,319.75,-307.75,31.25,-117.0,200.75,228.25,-529.25,3
-200.25,283.75,-368.25,39.5,-109.75,181.75,224.5,-394.0,3
108.75,260.0,-344.75,74.25,-82.75,169.75,229.0,-359.5,3
220.75,232.25,-276.5,95.5,-60.0,211.5,210.0,-387.25,3
229.25,245.25,-179.5,90.25,-1.5,231.5,202.25,-310.0,3
46.75,224.75,-26.5,88.0,80.75,204.75,194.25,-307.75,3
-282.25,191.75,119.5,75.0,182.25,165.0,176.75,-266.75,3
-444.75,201.75,158.0,47.25,221.75,156.5,173.0,-242.25,3
-524.25,186.75,19.25,30.5,206.25,120.0,154.75,-280.25,3
-559.5,193.25,-79.25,5.5,184.25,105.0,143.25,-326.5,3
-535.25,214.25,-89.75,-5.0,197.5,100.0,133.75,-467.75,3
-497.75,223.25,-91.5,-26.75,251.5,120.25,121.0,-519.0,3
-427.25,204.25,-95.5,-102.75,269.25,116.25,101.25,-509.25,3
-355.0,162.75,-127.5,-157.75,267.75,71.5,72.25,-461.0,3
-218.5,150.0,-231.75,-101.0,247.25,51.75,79.25,-384.0,3
7.25,133.5,-428.0,26.25,218.5,50.25,67.75,-343.0,3
244.5,115.25,-606.25,132.75,200.25,124.0,63.75,-273.0,3
353.5,140.75,-535.25,245.0,191.25,181.5,64.25,-266.75,3
296.75,160.5,-379.75,321.25,190.25,182.25,56.25,-218.75,3
177.0,151.0,-241.75,391.25,210.25,155.75,52.0,-168.75,3
64.5,129.25,-16.5,420.0,214.5,26.25,50.25,-132.0,3
-9.75,108.75,206.0,448.5,193.0,-67.0,49.5,-96.0,3
35.5,79.25,356.0,489.75,196.25,-99.75,30.5,-106.5,3
58.75,71.75,386.75,513.75,189.5,-114.5,21.25,-73.5,3
-69.25,31.0,342.5,530.75,213.0,-81.25,19.25,-59.75,3
-299.25,-13.25,180.0,527.0,235.5,-17.25,17.75,-24.75,3
-483.0,-21.75,171.25,523.5,179.5,-21.75,31.25,-38.5,3
-582.25,-39.5,242.25,502.5,176.0,-42.5,15.75,-40.0,3
-715.25,-50.0,214.25,475.75,173.75,-9.0,1.5,-31.75,3
-769.0,-47.0,189.5,463.5,173.5,-5.75,10.0,-86.25,3
-728.75,-43.25,174.0,462.5,179.5,-45.0,4.25,-21.0,3
-546.25,-47.75,214.0,431.0,161.75,-51.25,5.75,56.5,3
-270.75,-53.75,168.5,410.75,163.0,-19.5,7.25,83.25,3
-21.75,-43.75,26.75,392.75,124.0,-15.0,7.5,114.0,3
167.0,-35.5,-301.5,360.5,104.5,39.5,6.25,88.0,3
299.0,-47.75,-629.5,325.75,89.5,86.25,0.75,62.0,3
407.0,-43.0,-680.25,287.5,93.0,118.25,-2.5,63.75,3
340.0,-54.25,-426.5,274.0,103.5,152.75,4.25,91.25,3
325.5,-56.75,-89.5,242.75,95.75,146.0,3.0,61.0,3
300.75,-50.0,185.75,221.5,90.5,96.75,-4.5,53.0,3
223.5,-69.0,316.25,194.0,74.75,14.75,-2.0,115.75,3
95.0,-68.5,206.5,175.0,69.25,-35.5,-8.25,118.5,3
-13.5,-77.25,87.75,141.25,40.25,-113.0,-1.0,71.25,3
-65.5,-83.25,56.0,118.75,49.75,-138.75,-4.25,1.5,3
-258.25,-85.75,56.0,94.0,58.0,-144.0,-1.5,-33.0,3
-479.25,-100.5,102.25,50.0,44.5,-159.0,0.0,-48.25,3
-600.75,-89.75,64.5,35.25,42.0,-160.5,-9.75,-39.25,3
-483.75,-70.75,-335.0,18.0,32.0,-72.25,-5.25,9.0,3
-366.75,-64.0,-677.25,-7.0,27.0,-38.0,-6.25,121.25,3
-126.0,-74.75,-495.75,-46.5,28.5,-117.5,-7.75,225.0,3
-24.25,-84.25,-123.75,-60.25,38.0,-41.5,-4.0,220.0,3
-23.5,-72.5,48.0,-62.0,40.0,104.0,9.25,196.25,3
135.5,-32.75,279.5,-65.0,25.25,161.75,7.5,187.25,3
86.25,-0.75,553.75,-89.25,11.75,152.5,11.0,125.0,3
139.25,6.0,673.75,-129.25,-0.5,98.25,21.0,6.25,3
235.5,7.5,622.75,-156.5,15.75,62.25,7.25,-56.5,3
179.5,13.25,339.75,-157.25,30.75,89.75,6.75,-53.75,3
61.25,26.25,202.75,-157.75,21.5,-32.5,12.0,-90.0,3
148.0,20.5,287.25,-157.75,3.75,-35.0,11.0,-79.0,3
419.5,5.0,320.5,-147.25,7.25,35.75,11.25,-60.75,3
492.0,-25.5,364.75,-143.0,33.5,15.25,22.75,-1.75,3
515.5,-61.75,353.25,-136.5,58.75,141.25,8.5,71.25,3
440.75,-72.5,233.5,-138.75,86.25,174.75,-4.5,53.5,3
226.75,-87.25,135.25,-129.25,90.75,213.5,6.0,67.75,3
-107.0,-88.0,47.0,-123.75,85.0,261.75,11.5,47.5,3
-314.25,-70.0,-16.25,-126.75,85.25,255.25,9.25,72.5,3
-286.75,-57.5,-147.5,-135.0,74.25,208.5,2.75,162.75,3
-140.75,-37.0,-384.25,-150.25,53.0,62.5,12.0,225.5,3
8.5,-6.25,-721.25,-156.25,33.75,-89.75,6.0,168.0,3
200.75,10.5,-1026.75,-160.25,21.5,-84.5,5.5,86.0,3
380.25,14.25,-981.25,-176.0,13.0,-37.25,6.5,182.25,3
270.75,29.0,-577.5,-184.0,2.0,-130.0,10.5,48.25,3
43.25,21.25,-91.25,-175.75,3.25,-54.5,18.0,-214.75,3
-117.5,22.25,315.5,-181.0,-1.5,-51.5,16.75,-207.0,3
-192.5,19.5,492.0,-163.5,-19.75,-115.75,18.0,-115.0,3
-178.75,13.5,408.75,-137.75,-21.25,-25.5,23.25,-4.5,3
-151.75,31.0,244.0,-126.0,-10.75,71.5,13.0,67.25,3
-243.5,19.75,107.75,-107.5,-15.0,163.5,18.5,66.5,3
-315.5,25.75,91.5,-96.5,-26.0,142.5,28.0,24.5,3
-332.25,34.75,28.75,-90.75,-20.5,107.5,12.25,51.0,3
-373.75,11.75,-32.75,-87.75,-21.25,76.25,12.5,88.25,3
-409.5,14.5,-28.0,-79.25,-24.0,-5.25,7.0,106.5,3
-452.25,24.75,-10.0,-81.0,-15.75,6.5,8.0,102.5,3
-371.5,41.75,35.5,-79.75,-24.75,68.75,19.25,102.0,3
-428.25,31.5,-22.5,-67.25,-23.5,18.5,11.5,158.75,3
-458.25,-30.0,-107.0,-40.5,-23.75,-19.5,4.75,148.0,3
-365.75,-69.5,-167.75,-42.5,-11.0,12.75,9.5,120.75,3
-206.25,-101.0,-222.5,-61.75,-9.25,-24.25,16.0,130.5,3
4.75,-134.0,-226.5,-60.75,-28.0,-10.25,6.75,81.5,3
126.0,-131.75,-301.0,-79.0,-37.0,41.75,26.5,-86.5,3
277.75,-91.75,-357.25,-111.5,-38.5,81.0,34.25,-111.75,3
415.5,-64.75,-243.75,-125.5,-45.5,73.0,37.75,10.75,3
513.75,-42.0,-197.5,-125.75,-41.5,64.25,41.5,-97.25,3
391.0,-14.5,-294.5,-116.75,-29.5,55.25,28.0,-170.75,3
259.5,-16.25,-236.75,-90.5,-18.25,37.25,33.25,-70.75,3
330.5,-4.0,-34.25,-69.25,2.25,-18.5,32.0,-11.5,3
385.75,15.0,189.25,-62.75,-0.25,-121.75,34.25,39.5,3
415.5,36.25,352.0,-53.25,-5.0,-142.5,37.0,45.25,3
469.0,47.5,378.75,-58.25,-7.5,-145.0,29.0,59.0,3
540.25,36.0,427.5,-62.25,13.0,-55.75,29.5,39.25,3
450.5,39.25,334.75,-69.75,34.25,52.0,35.0,19.0,3
173.0,33.25,279.0,-49.5,39.25,82.25,35.25,-2.25,3
-40.75,14.0,287.0,-44.75,53.0,74.5,22.5,-23.25,3
-109.25,-10.5,184.75,-61.0,52.25,64.75,23.75,37.0,3
-246.0,-13.0,196.25,-53.5,66.5,65.5,25.5,118.5,3
-357.75,-18.25,-5.0,-30.5,62.0,35.25,19.25,162.0,3
-427.75,-26.75,-309.0,0.75,72.75,18.5,19.25,122.0,3
-514.5,-16.0,-449.5,-9.5,69.0,-10.5,15.0,77.25,3
-484.25,-27.5,-361.5,-33.5,47.0,-11.5,12.75,46.25,3
-467.0,-18.0,-4.0,-33.5,42.25,15.25,7.25,4.75,3
-462.75,-37.5,246.0,-38.25,26.5,19.75,19.0,-1.25,3
-422.25,-77.75,368.0,-66.5,16.25,17.25,22.5,30.25,3
-176.25,-67.75,414.25,-74.5,22.5,53.0,14.0,-22.0,3
238.25,-48.75,273.25,-41.75,33.25,52.75,21.5,-124.75,3
413.5,-12.5,101.0,-11.25,46.25,32.25,26.5,-73.25,3
522.75,13.0,-45.5,1.75,75.0,17.5,33.5,29.5,3
469.5,26.0,-179.0,2.0,77.5,3.0,40.0,49.5,3
235.5,46.0,-165.25,13.5,83.75,-28.0,34.75,87.25,3
52.75,52.0,-73.0,6.25,85.0,-105.25,20.5,80.0,3
-130.25,47.0,53.5,14.0,98.5,-110.0,10.75,18.75,3
48.5,26.0,167.75,35.25,112.0,-88.0,8.75,-47.75,3
303.5,30.0,310.25,47.25,110.5,-61.5,8.75,-62.25,3
297.0,21.0,394.5,35.5,120.75,10.75,3.25,-16.25,3
298.5,-19.25,283.0,9.25,119.75,65.5,-0.75,-30.0,3
232.5,-43.5,140.0,-10.25,114.0,98.75,-9.0,15.25,3
117.75,-56.75,-72.25,-27.5,98.0,102.5,-6.5,37.5,3
22.5,-75.25,-226.25,-21.75,106.75,70.75,-0.75,16.75,3
-20.25,-111.0,-282.25,-30.25,128.75,28.25,-8.5,29.25,3
-96.5,-101.75,-330.0,-27.75,120.5,-39.25,-2.25,48.25,3
-250.25,-54.0,-368.5,-9.5,104.75,-109.0,0.0,106.5,3
-366.75,-6.75,-406.25,-10.5,95.0,-103.75,3.75,119.5,3
-315.25,19.5,-347.5,-10.5,94.0,-60.75,4.5,126.0,3
-85.0,37.0,-262.75,-18.75,81.25,109.0,6.0,92.75,3
-13.75,61.0,-167.5,-21.75,61.25,255.0,5.0,4.25,3
-15.5,21.5,-41.25,-23.25,55.75,188.75,12.75,-103.25,3
-53.0,20.25,42.0,-14.25,55.0,25.0,21.0,-135.75,3
-163.75,50.25,109.25,-13.75,53.0,-144.0,21.75,29.5,3
-70.0,29.75,84.5,-32.25,50.75,-163.0,23.25,74.5,3
58.25,25.0,-70.75,-56.5,56.0,-193.75,12.75,-81.0,3
46.25,9.0,-289.5,-47.75,44.0,-250.0,12.5,-112.75,3
25.0,-23.0,-506.75,-27.25,45.0,-194.25,13.75,-93.5,3
-227.5,-45.0,-389.5,-15.5,46.25,-154.75,13.25,-22.0,3
-534.5,-56.5,-147.75,-12.75,36.0,-54.75,18.0,39.0,3
-439.5,-41.5,-14.5,-8.0,28.0,42.0,21.5,6.5,3
-208.0,-25.25,103.75,-13.75,17.5,56.5,19.5,38.0,3
74.0,-25.75,130.5,-7.0,29.75,10.0,21.25,27.5,3
267.75,-10.75,24.0,-7.25,24.25,22.75,31.75,79.5,3
273.25,9.75,-208.5,-6.0,24.25,106.5,34.75,126.25,3
265.0,34.0,-256.25,-7.25,4.5,157.75,22.75,-5.0,3
304.5,27.0,-251.0,-33.0,-16.75,158.75,16.5,-48.75,3
437.75,-4.0,-55.5,-52.5,-3.25,118.75,13.0,-23.25,3
490.75,15.75,341.5,-54.75,-20.75,108.75,11.0,-20.25,3
421.0,69.25,480.25,-54.5,-45.0,98.5,14.5,-30.75,3
282.5,86.25,532.0,-60.5,-87.75,10.25,3.5,-51.25,3
19.75,84.0,553.5,-51.25,-88.5,-18.75,6.0,-36.75,3
-337.5,100.0,327.25,-37.0,-71.25,-2.5,11.75,49.0,3
-603.75,86.25,366.25,-24.5,-79.75,-36.75,8.25,94.0,3
-695.0,53.5,582.25,-6.0,-52.0,67.75,9.75,27.5,3
-595.0,19.75,401.5,-1.0,-18.5,109.0,9.75,52.75,3
-599.25,-10.25,239.25,23.5,-10.5,78.25,13.75,78.75,3
-545.75,-47.0,-36.5,21.5,-11.25,180.25,22.0,48.25,3
-257.0,-64.5,-276.75,15.0,6.75,88.0,15.75,55.5,3
2.75,-45.25,-397.75,23.25,13.0,-55.5,6.5,95.5,3
464.75,-10.25,-413.75,3.0,3.25,-123.5,4.25,114.5,3
799.0,-5.5,-51.5,-7.0,17.5,-190.5,-4.75,78.25,3
885.0,-30.0,206.25,0.5,40.5,-156.75,4.25,-113.5,3
725.5,-14.5,204.75,4.75,31.75,-91.5,14.25,-260.0,3
298.5,-2.0,28.25,-7.75,0.25,17.5,13.0,-88.0,3
-113.0,-3.5,-4.0,-13.75,-8.25,82.0,27.5,-0.25,3
-362.5,-31.0,85.25,-9.5,-18.25,111.75,25.0,0.25,3
-495.75,-35.5,52.5,-18.5,-67.75,123.0,18.25,84.25,3
-594.75,0.0,-113.75,-34.75,-88.5,67.75,27.5,72.5,3
-367.5,17.5,-173.25,-26.25,-102.5,56.5,23.75,65.5,3
-296.5,18.5,-64.75,-12.75,-109.0,45.25,26.5,47.0,3
-287.0,38.75,-41.0,-1.25,-86.75,-9.75,36.75,1.25,3
-96.0,39.5,68.25,-14.0,-73.25,-48.5,40.5,10.0,3
-38.5,18.75,55.25,-24.5,-71.75,16.0,41.25,48.75,3
-19.75,39.0,-31.75,-18.25,-83.75,73.25,44.0,53.5,3
-44.25,55.25,-99.25,-23.25,-80.25,76.75,51.0,71.75,3
31.25,68.5,-167.0,-16.5,-91.0,146.25,42.25,98.75,3
-33.5,63.75,-133.25,-35.5,-97.5,140.0,29.0,33.5,3
-84.25,52.5,-110.5,-46.0,-90.75,85.25,20.5,-43.0,3
126.75,39.25,-218.5,-48.5,-80.25,50.25,8.75,10.5,3
330.0,-6.0,-400.75,-64.0,-55.75,93.75,3.0,100.75,3
361.25,-57.75,-437.75,-46.25,-26.75,83.75,9.25,67.75,3
330.0,-86.75,-345.0,-36.5,-20.75,30.75,9.5,5.5,3
332.75,-79.5,-331.0,-26.75,-26.75,-2.5,13.5,-97.25,3
153.25,-51.75,-265.75,-17.75,-13.75,-72.75,1.25,-155.75,3
31.5,-37.5,-22.0,-18.25,-21.0,-64.5,1.0,-92.25,3
8.0,-48.0,20.75,-21.0,-18.75,-75.0,13.5,21.75,3
78.75,-48.5,139.5,-25.25,-4.75,-14.5,0.5,16.25,3
113.5,-58.25,313.5,-16.25,-9.0,62.25,4.5,-18.75,3
-34.25,-50.75,321.25,-32.25,-2.0,101.75,-1.5,59.0,3
-142.25,-33.25,403.5,-38.0,-7.5,147.5,4.25,90.25,3
-308.0,-38.25,279.75,-38.25,-11.25,176.75,15.0,122.25,3
-334.5,-12.5,-48.0,-35.0,14.0,173.5,1.0,155.25,3
-294.5,13.25,-288.0,-18.25,26.0,61.25,9.5,160.0,3
-358.5,11.25,-377.75,-21.25,16.5,10.0,17.5,111.75,3
-344.5,-8.5,-408.0,-30.0,16.75,-22.25,29.25,-1.25,3
-248.25,-23.0,-284.5,-23.75,26.25,-87.75,35.0,-6.0,3
-82.25,-39.5,60.25,-20.5,43.0,-89.0,39.5,45.75,3
78.5,-60.0,302.25,-48.75,59.75,-73.5,43.25,-68.5,3
286.25,-48.5,291.0,-42.25,68.25,-84.25,49.25,-174.75,3
436.25,-46.5,236.25,-22.25,70.25,-53.5,46.75,-88.5,3
607.0,-37.75,120.75,-34.75,64.25,57.0,28.25,-32.0,3
674.0,-3.25,33.75,-23.25,71.5,120.25,36.5,-2.25,3
445.0,43.25,188.25,0.25,78.75,106.5,31.75,19.25,3
25.5,46.25,329.5,13.0,68.5,118.0,33.75,55.5,3
-314.75,29.0,437.25,8.25,52.5,91.5,40.25,104.75,3
-507.5,36.75,376.5,-5.25,27.5,49.5,42.25,106.5,3
-733.25,15.25,272.5,-23.5,29.0,53.25,45.5,61.75,3
-722.75,8.75,171.0,-19.75,37.25,42.0,39.5,-36.0,3
-479.5,-16.25,-23.0,-12.0,31.0,19.0,42.25,38.5,3
-26.0,-22.25,-146.5,2.5,37.0,-22.5,35.0,124.25,3
438.75,8.25,-217.0,12.0,46.25,47.75,46.5,73.0,3
747.25,16.75,-298.0,21.25,33.0,110.75,43.25,146.25,3
882.25,28.25,-506.25,32.0,19.0,107.75,35.75,218.25,3
689.0,9.5,-521.5,1.5,21.25,111.0,38.0,56.0,3
385.5,11.75,-378.0,7.25,28.0,78.5,28.5,-94.75,3
146.5,43.5,-232.25,11.25,31.25,52.0,37.5,-131.75,3
15.0,69.0,-19.0,-4.0,34.5,33.25,26.75,-70.25,3
-121.0,77.5,138.75,-7.0,56.0,42.5,26.25,-29.5,3
-107.5,46.5,231.5,-11.75,61.75,48.75,31.25,7.0,3
-134.0,36.0,216.5,-19.0,57.25,35.0,18.25,83.5,3
-309.75,41.5,70.5,-24.0,58.75,102.5,25.25,28.25,3
-433.25,15.25,-101.0,-5.25,78.75,210.75,33.5,62.25,3
-570.25,-17.25,-263.25,0.25,59.25,240.0,35.5,101.0,3
-637.25,-40.0,-396.25,-0.75,45.25,192.25,34.75,110.25,3
-538.5,-72.5,-542.25,0.0,56.75,-22.5,27.5,89.0,3
-280.0,-60.0,-618.5,-1.25,40.5,-222.5,32.75,10.5,3
-104.75,-31.25,-168.5,-14.25,33.75,-141.75,28.25,-13.25,3
-27.5,-28.0,301.5,-28.75,16.5,-171.75,21.75,-60.25,3
11.5,-19.75,495.25,-50.75,34.75,-234.5,30.0,-113.75,3
-11.75,-18.0,452.25,-53.75,46.0,-37.0,26.0,-182.0,3
-80.0,-4.75,180.0,-46.25,34.0,43.75,29.0,-167.5,3
-100.75,8.25,37.5,-38.5,64.75,90.25,28.75,-88.5,3
42.0,18.0,-60.25,-37.25,79.0,209.75,35.5,66.25,3
187.5,3.5,37.25,-22.25,87.25,221.5,43.25,160.5,3
216.0,-12.5,217.25,-6.5,100.5,180.25,20.25,160.0,3
67.25,-5.5,475.0,-7.75,93.5,101.0,12.5,185.75,3
-44.0,-16.0,582.75,10.75,82.5,37.5,21.75,143.25,3
42.5,16.5,444.75,12.0,60.0,-35.25,13.5,69.25,3
142.5,45.75,257.5,36.5,60.5,-48.25,19.25,4.5,3
93.5,51.25,-12.25,67.0,93.5,19.25,19.25,54.5,3
68.25,61.5,-201.25,70.0,91.75,87.25,15.25,48.5,3
40.25,52.25,-350.5,59.75,82.75,94.0,22.25,20.0,3
-139.25,49.25,-348.75,18.5,70.5,114.25,15.5,82.25,3
-267.75,49.5,-219.75,-5.5,69.5,151.5,1.0,61.25,3
-304.5,12.5,-86.25,-15.75,47.5,17.5,2.0,0.75,3
-290.0,-50.75,-108.5,-24.25,33.75,-130.25,5.0,-87.75,3
-70.5,-68.75,-159.5,-27.75,38.25,-211.5,15.5,-37.75,3
210.0,-6.5,-187.75,-27.75,17.0,-114.0,24.25,-11.5,3
458.25,-2.5,-176.75,-49.75,29.0,37.0,13.75,-91.5,3
626.25,-44.25,35.5,-77.5,38.0,15.5,7.0,-272.75,3
560.0,-39.5,106.5,-74.0,40.75,28.25,0.75,-317.0,3
558.5,-0.25,114.5,-66.5,9.5,-7.5,4.0,-92.75,3
543.75,37.0,163.75,-53.75,15.5,6.25,3.25,79.0,3
444.5,60.25,191.75,-34.25,34.5,49.5,-0.75,98.0,3
233.5,86.75,260.25,-28.5,26.75,13.0,13.5,93.0,3
-106.5,83.25,265.75,-21.0,42.5,29.75,19.25,145.25,3
-291.0,62.25,187.0,3.75,40.5,30.0,28.25,162.25,3
-418.75,53.5,-2.0,10.25,23.75,18.75,23.75,218.75,3
-382.0,42.25,-219.25,-2.25,6.5,39.25,8.5,160.75,3
-359.75,12.0,-292.5,-7.75,6.75,54.25,15.75,89.0,3
-536.5,1.75,-152.25,-11.25,10.75,22.0,3.75,-22.0,3
-608.5,-9.75,-15.5,-7.75,18.0,32.25,3.0,-155.0,3
-436.0,3.0,-22.5,-17.75,26.5,34.5,9.5,-203.0,3
-129.75,16.75,8.75,-33.0,19.75,2.75,7.25,-144.5,3
126.75,1.0,-41.0,-49.0,-9.75,-52.25,1.0,98.25,3
273.0,11.25,-129.5,-60.25,-23.25,-106.25,0.5,129.0,3
304.25,13.0,-63.25,-50.25,-29.0,-35.0,-4.0,116.25,3
226.75,14.5,-82.0,-54.75,-18.0,-55.25,-1.5,127.5,3
156.0,7.0,-66.5,-43.0,-20.5,-97.75,7.5,90.25,3
82.25,-9.25,-111.25,-37.25,-34.5,-43.5,3.75,101.75,3
65.25,-13.5,-246.5,-17.25,-36.0,-45.0,5.25,84.25,3
223.5,10.75,-285.0,-20.75,-28.5,-34.0,9.25,107.0,3
235.25,35.75,-283.0,-45.0,-25.0,-23.5,19.25,104.0,3
182.25,45.5,-189.75,-30.0,-21.0,-26.75,13.25,105.25,3
151.0,49.25,-65.0,-48.75,13.5,-19.75,4.25,76.75,3
-82.0,26.0,61.25,-57.75,16.25,-21.75,12.75,32.5,3
-479.25,10.75,118.5,-58.0,23.5,-20.75,7.0,-4.25,3
-712.75,28.75,73.5,-65.25,16.25,-23.0,11.25,-5.5,3
-532.0,23.5,84.75,-54.0,11.25,-52.0,5.0,5.75,3
-320.5,16.75,62.75,-48.25,24.75,-36.0,10.75,-16.5,3
-81.5,24.0,-17.25,-24.25,3.25,-39.75,18.25,-6.5,3
74.25,1.0,-34.5,-17.0,-5.25,-63.75,26.25,-3.0,3
65.5,5.25,7.0,-10.75,-13.5,-25.25,28.75,7.75,3
121.75,14.0,34.5,-2.0,-17.75,3.5,11.75,-13.25,3
121.0,1.5,-140.75,-12.75,-7.5,26.0,10.25,-14.75,3
174.75,-7.5,-200.75,-3.0,-26.25,13.0,2.75,-10.0,3
110.5,-28.0,-245.25,21.5,-50.25,29.5,5.0,-28.25,3
-34.0,-33.0,-319.25,20.5,-62.25,42.0,14.5,-39.25,3
-73.5,-28.5,-123.5,-9.5,-92.5,9.0,21.5,-56.5,3
-41.25,-44.75,-10.0,-20.0,-109.75,-3.0,10.75,-62.75,3
3.0,-44.0,51.0,-20.25,-95.5,-46.75,10.0,-31.5,3
-74.5,-5.0,94.0,-10.5,-76.25,-40.5,12.75,22.5,3
-42.5,41.0,-7.0,-21.0,-42.5,-12.5,6.25,54.0,3
156.25,86.0,-12.0,-28.5,-36.0,-21.75,14.0,93.25,3
251.0,86.5,30.5,-18.5,-52.75,14.0,9.75,87.5,3
206.0,78.75,-22.75,-25.75,-55.75,89.75,15.25,-10.75,3
215.0,83.75,104.25,-45.25,-50.75,105.5,17.75,-146.25,3
174.75,52.75,403.0,-60.5,-42.0,55.0,15.5,-80.25,3
59.75,24.75,546.0,-44.75,-38.75,27.25,27.75,-49.5,3
-40.0,13.75,634.75,-28.5,-54.5,-20.25,26.75,-116.0,3
-86.5,-5.75,623.25,6.5,-78.5,-88.25,17.75,-6.5,3
-90.0,-47.25,446.0,25.0,-61.0,-137.75,3.75,-36.0,3
-200.5,-80.25,355.25,44.5,-56.25,-122.25,10.75,-119.0,3
-207.75,-65.5,108.25,47.75,-50.75,-75.25,30.5,-150.25,3
-96.0,-52.0,-202.75,17.25,-38.5,-120.5,41.25,-14.5,3
15.75,-7.75,-376.5,4.75,-44.75,-91.25,41.25,95.75,3
142.25,36.75,-497.25,-12.0,-29.0,35.25,35.0,45.0,3
180.75,31.75,-475.0,-22.25,-41.25,70.5,38.0,79.25,3
75.25,21.75,-279.25,-43.25,-43.75,54.75,27.5,51.5,3
-99.25,-5.5,-157.5,-52.25,-58.5,5.75,35.5,-28.75,3
-225.0,-12.25,-87.5,-45.5,-61.0,-12.75,53.25,-44.5,3
-121.0,-22.75,33.75,-34.5,-52.25,-7.25,44.0,97.5,3
71.25,-22.5,16.5,-21.0,-56.25,40.5,55.0,104.5,3
154.0,-12.5,4.25,-18.25,-43.5,82.75,53.25,67.5,3
201.5,-5.0,25.25,-0.5,-36.5,77.75,50.75,70.5,3
177.25,3.75,106.75,1.0,-22.75,105.5,69.75,87.0,3
50.25,-8.0,195.0,2.0,-3.25,107.25,61.75,42.5,3
-44.75,-8.0,123.25,12.5,17.75,162.75,61.25,-94.0,3
-189.25,5.25,-5.0,17.75,28.0,181.5,48.5,-40.5,3
-292.75,31.25,-64.5,28.0,38.75,164.75,28.75,-80.5,3
-199.0,31.25,-68.0,22.75,48.75,145.5,36.25,-84.5,3
-141.25,9.75,-138.0,15.5,36.5,126.25,39.0,-41.75,3
-19.25,14.5,-183.25,25.25,23.0,138.75,35.5,-12.0,3
64.25,27.0,-168.25,15.5,18.5,121.25,33.25,30.25,3
-56.25,28.25,-143.5,8.75,16.25,100.5,28.75,-0.75,3
-103.0,28.0,-81.0,-14.5,14.0,117.25,9.75,58.0,3
12.0,21.75,18.0,-40.75,1.25,156.75,3.5,136.75,3
119.75,-16.25,56.25,-29.5,-8.0,159.0,8.5,176.25,3
176.5,-49.75,25.25,-23.5,-1.25,182.25,9.75,100.25,3
231.75,-46.5,-10.5,-26.5,6.25,140.5,9.5,53.0,3
220.5,-32.0,-28.25,-25.75,3.0,15.5,1.75,46.0,3
174.25,-12.75,-106.5,-9.5,-9.25,-56.75,-0.75,90.25,3
93.25,-31.25,-215.25,-5.5,-4.5,-23.75,15.5,119.75,3
66.75,-35.5,-118.0,-25.5,13.75,-83.5,30.25,148.25,3
-12.0,-26.0,73.75,-45.75,20.0,-93.75,21.5,188.25,3
-162.75,-19.5,152.75,-51.0,22.75,5.0,26.75,91.5,3
-274.75,8.75,69.25,-61.75,37.0,-11.0,21.5,8.0,3
-366.5,20.0,-81.25,-74.75,65.75,38.0,5.5,-158.25,3
-382.25,9.75,-168.25,-58.5,56.0,4.75,14.5,-253.0,3
-195.25,5.75,-294.75,-55.25,53.0,2.25,17.0,-104.25,3
-4.5,13.5,-335.25,-58.25,63.5,44.0,24.0,64.0,3
106.0,9.25,-195.0,-59.75,56.0,18.75,14.5,83.75,3
290.75,-13.25,-141.75,-62.25,77.0,-33.25,16.75,86.0,3
243.25,-38.25,-276.75,-42.0,100.5,-50.75,24.25,108.5,3
223.5,-26.75,-446.75,-9.75,92.25,43.0,12.75,15.25,3
293.75,5.5,-503.5,-19.0,62.25,28.75,8.5,-77.25,3
385.0,9.0,-398.75,-22.0,32.0,10.0,22.0,-44.5,3
446.0,21.75,133.75,2.0,12.0,51.5,12.75,4.75,3
316.0,40.25,669.5,-2.5,11.25,72.0,6.25,-90.0,3
20.25,40.5,975.25,-15.0,21.0,49.25,15.0,-28.0,3
-351.0,55.75,1023.5,-14.25,25.75,57.0,17.0,91.5,3
-402.75,57.75,742.25,-16.25,48.0,100.25,28.25,115.0,3
-429.25,31.5,404.25,-14.75,58.75,88.0,24.0,168.5,3
-386.0,17.25,22.0,-22.25,68.5,46.75,29.75,180.0,3
-247.5,3.25,-99.0,-22.25,73.0,42.5,21.0,195.0,3
-191.0,-20.5,-103.5,-6.75,44.5,69.25,18.0,131.25,3
-92.0,-46.25,-171.5,1.5,42.75,58.75,28.75,-2.0,3
-36.75,-67.5,-299.25,17.5,48.0,48.75,24.25,-170.5,3
2.75,-62.25,-313.25,5.25,49.25,60.5,25.0,-234.25,3
150.0,-27.0,-210.75,2.75,71.25,100.75,22.5,-175.75,3
290.25,-8.0,-36.25,11.25,88.0,93.5,18.0,-87.25,3
353.75,-3.5,183.25,-14.0,86.75,82.75,11.5,-85.25,3
371.5,-17.5,230.75,-32.25,84.5,73.0,20.5,-79.0,3
230.5,-26.5,341.0,-31.75,85.0,18.25,17.25,56.25,3
128.75,-22.25,278.0,-28.25,74.25,12.25,27.25,49.0,3
-15.25,-22.0,183.75,-27.25,81.25,38.75,30.0,6.25,3
-177.25,9.75,81.75,0.0,86.5,-24.0,23.25,-6.75,3
-374.0,54.75,41.0,42.25,71.75,-95.75,34.75,-46.75,3
-495.5,81.5,18.25,66.0,51.0,-66.5,28.0,-75.5,3
-544.5,62.0,-144.25,75.0,58.75,-23.5,28.75,-88.5,3
-555.0,22.5,-219.25,99.75,80.25,45.0,31.75,-68.25,3
-539.75,1.25,-278.75,102.5,71.75,52.75,40.75,-53.25,3
-550.5,-22.5,-217.75,66.25,97.0,59.75,33.75,-24.25,3
-432.75,-24.5,-181.25,36.25,114.25,85.0,24.5,30.25,3
-299.25,-15.75,-147.5,7.25,104.0,29.25,24.25,87.0,3
-90.75,-13.75,-92.25,-19.5,107.5,41.0,20.75,100.25,3
111.25,4.0,-103.5,-34.5,111.5,96.5,21.0,114.75,3
399.0,9.25,-200.0,-52.0,116.5,101.5,17.5,113.0,3
526.0,-10.75,-331.75,-79.75,139.5,115.5,23.25,100.0,3
436.25,-25.25,-655.25,-74.25,159.75,161.25,36.25,85.5,3
231.75,-37.0,-1001.75,-72.0,147.25,103.0,34.0,10.25,3
9.0,-60.5,-938.0,-88.75,135.75,22.5,36.0,-99.5,3
-62.25,-68.25,-672.25,-84.5,125.0,-54.5,35.5,-90.5,3
-70.25,-69.5,-333.0,-78.75,119.0,-71.75,33.75,61.0,3
53.75,-75.0,126.75,-56.0,117.5,-81.5,36.75,21.75,3
105.75,-65.0,601.0,-23.75,103.25,-56.75,32.0,-40.5,3
176.75,-48.5,819.5,-40.75,81.5,87.75,35.0,40.25,3
182.75,-50.0,926.25,-39.75,82.75,59.75,34.5,31.25,3
208.0,-35.25,869.0,-10.75,92.25,-13.0,33.25,34.0,3
286.75,-10.0,779.0,1.75,74.5,-46.25,30.0,26.5,3
213.0,23.5,824.0,23.5,73.25,-60.25,24.25,-9.5,3
51.5,74.0,779.0,18.0,64.75,-71.25,26.5,-22.75,3
-82.5,62.5,711.5,38.75,69.0,-125.0,22.0,-50.5,3
-78.5,66.0,573.75,52.0,84.25,-104.75,29.25,-6.75,3
-126.75,64.75,418.75,54.75,76.25,-56.75,30.25,23.5,3
-153.0,36.0,137.75,74.5,69.75,-0.5,19.75,13.0,3
-164.5,15.75,-113.75,29.75,59.5,70.0,27.5,0.5,3
-194.0,-57.75,-342.75,-9.5,63.25,156.5,32.75,3.75,3
-314.5,-94.0,-483.5,-31.75,67.25,151.0,26.75,35.5,3
-352.5,-66.5,-502.5,-32.0,64.5,112.25,29.5,48.5,3
-146.75,-43.0,-582.5,-26.0,55.75,105.5,30.0,72.0,3
-13.5,-31.5,-574.0,-34.5,30.75,69.5,21.75,66.75,3
83.25,-6.75,-509.75,-38.75,22.5,41.75,6.75,64.25,3
142.5,11.25,-302.25,-51.5,0.25,-1.0,6.0,55.0,3
126.0,-0.25,-124.75,-51.25,2.75,-40.5,12.5,11.0,3
134.5,-28.0,-174.5,-50.5,18.5,-81.5,14.5,29.0,3
136.75,-29.5,-367.75,-52.75,0.0,-120.0,12.5,132.25,3
67.5,-7.75,-303.0,-59.5,-16.25,-188.75,17.25,146.75,3
41.0,30.75,-133.0,-58.25,-14.75,-205.5,21.5,56.25,3
8.75,57.25,-191.5,-41.75,-12.25,-230.5,21.25,-30.0,3
18.5,71.0,-107.75,-26.5,-17.0,-225.5,22.5,-193.0,3
11.0,96.0,122.25,-16.75,-7.0,-102.25,27.75,-273.0,3
-108.75,67.75,273.75,7.5,-1.25,-84.0,44.25,-258.5,3
-178.5,45.5,253.25,26.0,0.75,-73.5,32.0,-255.5,3
-305.0,17.5,217.75,10.0,-8.75,-32.25,12.75,-151.0,3
-399.75,2.75,121.75,-10.0,8.0,-38.5,17.25,-38.25,3
-289.25,8.5,-29.75,-26.25,24.5,17.0,17.25,5.25,3
-247.75,-4.25,2.5,-44.0,12.0,60.75,21.5,22.0,3
-239.5,11.75,38.5,-35.75,9.5,43.5,21.5,34.75,3
-149.75,-1.75,111.75,-21.25,2.0,71.25,31.75,21.25,3
-37.25,10.25,180.25,-21.25,8.0,65.75,21.0,10.75,3
212.0,33.75,78.5,-20.0,24.25,56.0,13.0,32.5,3
354.0,24.0,-84.5,-23.75,36.75,75.25,24.5,54.25,3
349.5,18.25,-268.0,-8.5,44.25,43.25,26.25,70.0,3
273.75,17.25,-256.25,-8.0,35.25,49.0,29.0,102.0,3
257.25,33.25,-123.5,-6.0,46.25,106.75,31.25,141.0,3
299.0,17.25,-4.25,3.25,71.75,119.0,18.75,133.5,3
48.75,-14.25,18.25,1.75,56.5,88.25,6.25,79.0,3
-167.0,-18.0,-38.25,0.0,15.5,27.5,4.5,19.75,3
-318.75,-35.0,-3.0,8.0,-0.25,-83.75,3.0,-50.0,3
-352.25,-72.0,-36.0,20.75,3.5,-30.5,14.25,-59.75,3
-144.0,-87.25,-76.75,22.75,6.0,80.5,10.75,1.25,3
18.5,-49.25,-159.5,25.0,-2.5,91.0,5.75,62.5,3
16.5,-19.5,-205.0,18.0,-13.5,117.0,8.0,87.0,3
-48.25,-4.75,-192.5,4.75,7.0,70.5,0.25,74.25,3
-36.0,5.25,-193.0,0.25,8.75,68.25,6.0,61.5,3
31.5,-12.5,-73.5,-5.5,-0.5,105.0,-8.75,40.25,3
29.0,-18.75,90.25,-21.25,-2.0,32.5,-17.5,-30.75,3
-252.25,-20.75,243.5,-32.5,-15.25,-52.0,-6.25,10.75,3
-366.75,-8.0,253.75,-57.5,-2.75,-28.5,-8.5,94.0,3
-352.0,10.25,156.75,-64.5,2.75,3.0,-6.5,54.25,3
-214.75,31.25,123.25,-58.75,-6.5,22.75,-1.75,66.5,3
81.25,47.5,87.5,-65.5,-13.75,77.0,-3.0,39.25,3
79.5,46.0,107.5,-74.75,-23.0,-79.25,-5.25,-30.5,3
132.0,37.5,110.75,-76.0,-22.0,-167.0,-0.5,-28.75,3
283.25,42.25,10.75,-60.5,-21.0,30.5,-11.0,40.75,3
488.5,56.75,-100.5,-46.75,-37.25,75.25,-12.25,34.75,3
491.75,45.75,-248.75,-39.5,-43.0,63.75,-13.0,43.25,3
349.75,22.75,-324.0,-66.0,-24.0,101.75,-17.75,85.5,3
407.0,5.75,-398.0,-59.0,-36.5,71.25,11.25,-17.75,3
291.0,9.75,-301.0,-19.0,-39.0,66.5,9.5,-10.75,3
236.25,-8.5,-80.25,-25.0,1.5,64.25,11.5,1.75,3
201.0,-10.75,112.5,-7.25,10.75,68.75,29.25,-19.5,3
141.0,7.75,400.75,-34.75,-1.0,88.25,25.75,-86.75,3
133.75,6.5,513.75,-34.25,-17.75,114.5,34.75,-166.0,3
103.0,9.0,497.75,-7.75,-7.5,102.0,23.5,-128.0,3
95.5,-7.5,268.75,-45.75,-8.5,56.5,27.75,-69.25,3
-64.5,-15.0,-3.75,-19.75,-9.0,54.0,47.75,65.5,3
-89.75,-14.25,-105.25,-11.25,-3.5,30.5,34.75,59.0,3
-39.0,-20.75,-259.5,-16.25,-0.25,-49.25,25.75,46.0,3
41.75,-45.75,-325.75,14.75,-2.5,-53.5,34.0,72.75,3
180.5,-35.25,-309.25,19.0,-6.75,9.0,32.25,38.25,3
143.75,-16.5,-259.25,26.5,12.5,-9.25,44.25,50.5,3
67.0,-28.75,-173.75,21.25,18.75,40.0,53.0,51.25,3
-95.25,-11.5,-165.75,13.75,23.5,106.75,48.75,77.5,3
-278.0,-5.75,-205.5,-7.5,29.5,83.5,42.25,49.5,3
-379.5,-3.0,77.75,-51.5,17.5,93.25,33.25,54.75,3
-478.5,10.5,568.75,-53.25,15.5,75.0,40.0,70.5,3
-486.75,21.25,764.25,-56.0,13.0,21.5,40.75,69.25,3
-519.25,44.0,767.75,-63.25,8.75,-71.0,37.5,67.75,3
-463.5,39.25,566.0,-52.75,11.75,-19.75,37.25,61.75,3
-349.5,34.25,392.25,-51.0,6.5,72.75,30.25,56.0,3
-374.0,18.5,253.5,-21.0,5.75,-29.0,21.5,36.75,3
-302.0,-3.5,-32.5,16.5,4.25,-61.5,33.75,65.25,3
-209.5,-32.25,-290.75,28.0,-7.0,-25.0,30.75,45.0,3
-164.5,-70.0,-444.5,16.5,-0.75,18.25,13.75,26.5,3
-90.5,-78.0,-377.0,-10.5,10.0,-0.5,16.0,51.5,3
88.0,-57.0,-186.75,25.5,-32.75,14.75,20.5,57.75,3
274.0,-42.5,-89.0,57.75,-23.0,45.25,24.0,106.25,3
273.75,-44.5,-76.0,12.5,11.5,-30.5,23.0,118.5,3
134.25,-6.75,-14.0,15.25,4.75,-35.0,26.0,59.0,3
-119.75,7.25,-23.75,-18.0,10.75,-15.0,23.5,13.5,3
-257.75,14.0,-127.0,-18.75,-12.0,-60.75,26.25,-60.0,3
-40.5,-5.0,-190.75,-6.5,-11.5,3.0,19.5,-108.25,3
169.0,-25.25,-196.25,-14.5,-5.0,54.75,11.25,-86.25,3
165.75,-11.25,-174.75,18.25,0.5,28.75,-1.75,-100.0,3
275.75,-47.25,-241.25,-2.25,17.0,100.5,-7.75,-146.25,3
393.5,-59.25,-261.25,2.0,22.75,108.0,-14.5,-161.75,3
481.0,-75.0,-168.0,-2.25,15.0,146.25,-18.5,-41.5,3
444.25,-77.25,-73.25,-7.0,19.25,267.0,-13.0,14.75,3
251.5,-41.25,-3.75,-14.5,10.5,350.75,-9.25,41.75,3
-73.0,25.0,50.0,-33.25,-16.5,312.5,20.5,148.75,3
-292.75,82.5,25.0,-21.25,-11.0,212.5,32.0,88.75,3
-215.0,86.5,37.75,-22.5,-14.5,75.75,40.5,25.0,3
-137.75,78.75,116.25,-29.75,12.75,-131.5,31.25,-84.0,3
41.75,37.5,76.25,-54.0,41.0,-206.5,28.75,-156.75,3
194.5,14.5,14.75,-55.75,17.75,-228.0,31.5,-23.75,3
148.5,-13.25,24.0,-25.0,-16.0,-288.5,17.75,59.25,3
-91.0,-32.5,67.5,-18.25,-9.25,-333.5,25.5,113.75,3
-404.5,11.5,46.5,-22.75,19.0,-292.75,22.25,200.25,3
-484.5,26.0,25.0,-2.25,22.25,-160.75,26.0,160.25,3
-433.75,-21.0,15.0,10.0,24.75,-46.0,36.0,118.75,3
-332.5,-41.0,36.5,-1.0,-6.0,46.0,30.75,137.5,3
-269.5,-27.5,28.75,-7.5,-25.0,79.0,22.0,30.5,3
-179.75,-8.5,-92.25,-4.5,-10.75,38.5,2.0,-205.25,3
-85.25,-3.25,-201.25,-22.5,-12.5,26.0,-5.25,-266.0,3
-70.75,-29.0,-274.5,-51.25,14.75,53.5,-6.75,-78.5,3
99.25,-51.0,-314.5,-32.0,11.75,51.75,8.75,80.0,3
259.5,-51.25,-275.5,-20.25,-4.75,31.5,17.75,78.25,3
284.5,-38.25,-194.5,-62.5,-1.25,47.5,4.5,74.25,3
425.75,-54.75,-101.25,-44.25,-3.25,22.75,10.25,74.75,3
436.0,-85.0,34.25,-49.25,7.5,12.75,5.0,23.0,3
250.75,-77.75,228.0,-64.0,11.25,15.75,17.75,46.5,3
138.75,-26.0,322.5,-36.75,26.75,-4.5,15.5,63.75,3
119.25,29.25,292.5,-36.25,29.0,6.25,17.75,-11.5,3
204.25,38.25,155.5,-0.75,27.5,47.75,20.75,10.0,3
-12.5,42.5,6.75,2.25,33.0,78.5,6.75,87.75,3
-307.25,42.75,-30.0,-5.75,31.25,70.0,26.25,64.0,3
-93.75,27.25,-233.25,1.5,43.75,80.25,28.0,86.5,3
139.75,19.25,-408.25,2.75,47.5,60.75,28.0,84.75,3
197.75,22.5,-210.25,5.0,58.5,46.25,18.25,82.0,3
326.5,36.75,-23.0,-1.0,70.25,62.75,18.75,92.75,3
344.5,37.25,-47.5,-1.0,74.5,62.5,27.25,23.75,3
234.0,25.0,-20.5,-22.5,65.25,73.5,29.5,26.0,3
45.75,27.5,62.75,-42.25,57.0,83.25,24.5,42.25,3
-251.25,45.0,232.5,-38.75,45.0,76.25,19.5,1.5,3
-405.75,48.25,502.75,-29.5,46.5,48.25,32.75,34.0,3
-257.5,48.75,605.0,-5.25,74.5,-26.25,40.0,-5.5,3
-60.0,48.5,590.75,3.75,82.0,-66.25,23.0,-93.75,3
-11.5,43.25,467.0,-18.25,65.75,-15.75,18.75,-6.25,3
-126.0,35.5,221.75,-11.75,57.5,-55.75,15.0,3.5,3
-316.0,8.75,-1.0,8.5,63.5,-28.5,11.75,-29.75,3
-600.0,-20.75,-107.75,13.75,47.25,48.0,16.5,-53.5,3
-704.5,-19.0,-250.5,6.75,49.5,6.25,9.75,-46.5,3
-603.0,-31.0,-456.5,26.25,62.25,-10.5,14.75,37.5,3
-408.0,-17.25,-572.0,36.5,69.0,-14.5,14.0,-14.0,3
-180.0,15.5,-712.25,30.5,70.25,16.25,24.75,-30.5,3
19.25,27.0,-799.0,24.5,68.25,5.5,38.25,-5.0,3
290.25,43.5,-679.5,-2.5,65.25,-14.25,30.5,0.5,3
311.75,37.25,-283.0,-4.25,62.5,4.75,29.75,-20.5,3
480.5,68.0,39.25,-16.0,68.0,-1.75,37.5,-24.25,3
613.25,82.25,476.5,-23.75,71.5,0.75,45.0,44.0,3
362.25,60.5,860.75,-11.75,76.5,-21.5,54.5,35.0,3
271.0,38.0,841.0,-21.0,66.0,-31.75,59.0,22.0,3
171.25,-17.25,735.75,-29.0,73.0,7.0,63.5,52.25,3
49.5,-54.75,557.25,-42.0,76.25,21.5,51.5,55.25,3
-21.25,-10.5,365.5,-54.25,68.5,1.25,42.25,29.25,3
-15.75,31.75,47.5,-44.5,68.0,39.5,49.75,50.0,3
-44.75,24.25,-228.0,-39.25,42.75,54.5,54.0,59.25,3
-223.0,14.75,-359.75,-35.0,46.25,75.75,51.25,15.25,3
-279.5,-12.75,-362.0,-16.25,48.25,45.25,52.25,27.75,3
-191.25,-37.75,-333.25,-29.25,49.5,8.5,51.25,0.75,3
-88.5,-74.25,-334.75,-12.0,41.75,42.75,39.0,-39.5,3
-72.0,-102.0,-136.0,3.75,25.5,52.75,29.5,-5.75,3
-121.5,-93.25,28.25,-13.5,35.75,43.75,36.0,21.75,3
-221.75,-60.25,85.25,-30.75,32.0,4.25,31.75,12.75,3
-308.25,-29.75,61.0,-39.75,33.0,3.25,21.5,8.75,3
-360.5,-12.5,60.5,-32.25,23.5,36.0,18.5,1.0,3
-230.0,2.5,37.25,-33.0,24.0,57.5,20.25,4.0,3
-148.0,32.5,-34.5,-24.0,31.25,53.0,45.0,19.75,3
-107.25,67.5,-122.25,-15.75,25.75,36.75,30.5,2.75,3
106.5,60.75,-304.75,-21.75,27.25,14.5,18.25,-11.75,3
304.5,54.5,-345.25,-35.5,29.25,23.5,31.5,-18.0,3
629.0,42.5,-333.5,-42.75,23.75,32.0,20.5,29.5,3
609.5,36.25,-260.25,-48.25,19.5,51.25,28.25,58.75,3
623.0,37.0,-121.25,-29.25,15.25,66.0,25.25,51.0,3
721.0,16.75,41.5,-7.25,11.75,122.5,22.75,56.5,3
521.5,13.75,175.25,-2.75,14.25,122.0,30.25,22.75,3
342.75,41.75,34.75,0.5,-4.5,95.75,22.75,-34.75,3
87.25,37.5,-107.25,-12.75,-3.75,134.25,27.5,-80.5,3
69.25,35.25,-157.25,-29.5,9.75,69.0,27.75,-15.0,3
-163.25,38.0,-141.75,-37.0,-4.75,17.25,18.25,71.75,3
-482.25,7.5,-104.5,-16.25,-9.5,-72.75,17.0,76.5,3
-706.0,-27.0,6.25,-5.0,1.5,-98.75,21.5,93.25,3
-729.75,-62.5,280.5,5.0,12.0,-5.5,6.5,66.25,3
-649.5,-45.75,395.75,-4.0,11.75,28.5,-4.75,37.75,3
-758.75,-50.5,501.0,-19.25,9.0,16.0,-1.25,13.25,3
-464.25,-34.25,515.5,-19.25,1.5,65.0,-1.25,-67.5,3
-242.0,6.5,378.25,-32.5,-5.75,121.5,1.5,-109.25,3
-41.25,15.75,131.5,-23.5,-9.0,78.75,3.0,-121.5,3
217.25,16.75,-214.75,-5.0,7.75,65.25,8.25,-139.75,3
293.75,-3.0,-348.25,15.5,10.5,37.0,3.0,-113.0,3
244.25,-6.25,-367.5,29.0,-6.75,-16.75,3.0,-17.0,3
166.5,-21.25,-318.0,17.75,-6.25,-87.25,3.25,66.5,3
256.75,-6.0,-248.25,3.5,-7.75,-140.5,-12.5,107.0,3
173.5,17.5,-62.25,-4.0,8.5,-65.0,-3.75,89.75,3
157.75,21.5,145.75,-18.75,22.0,16.75,-9.5,52.5,3
332.25,36.5,225.25,-26.25,11.25,9.0,-13.25,4.25,3
352.25,26.25,257.5,-34.0,-15.25,14.5,-11.25,-89.0,3
294.5,8.0,271.0,-39.75,-44.25,56.5,-12.75,-62.25,3
313.25,-8.25,228.5,-26.5,-25.25,74.5,7.75,95.25,3
345.75,8.75,191.75,-6.0,14.5,74.5,8.25,201.5,3
259.75,12.0,163.25,7.25,23.25,79.25,17.75,287.5,3
83.5,-1.0,43.25,-10.5,34.5,108.5,32.25,206.25,3
-23.5,3.75,12.25,-26.75,28.25,110.75,9.75,-56.5,3
-132.25,-21.0,-97.0,65.0,-75.0,9.0,-10.75,55.75,3
-241.0,-27.5,-355.5,75.75,-67.75,35.25,7.5,141.0,3
-349.0,-33.25,-569.5,2.25,-38.25,107.0,6.75,-212.75,3
-394.0,-26.75,-684.5,-12.5,-50.75,89.25,0.25,-506.5,3
-361.75,0.75,-657.0,-61.75,-3.5,99.0,3.0,-464.0,3
-396.5,8.5,-404.25,-45.25,-38.0,-2.5,-10.5,-154.75,3
-454.75,0.5,84.0,-65.5,-52.25,-33.25,0.25,18.0,3
-559.25,-23.0,394.5,-48.0,-61.5,45.5,16.5,32.5,3
-834.25,-49.25,523.0,-54.25,-44.75,59.5,20.25,12.75,3
-915.0,-76.0,512.5,-82.5,-32.5,53.75,31.5,58.75,3
-555.25,-60.0,237.75,-68.75,-50.75,-1.0,34.75,136.5,3
-102.0,-30.25,-3.75,-62.25,-57.5,-70.5,33.5,130.0,3
426.75,8.25,-99.75,-25.5,-68.0,-26.0,31.5,174.25,3
827.75,44.25,-136.0,-27.75,-56.0,47.75,23.75,167.25,3
913.25,36.5,-67.75,-14.0,-60.0,63.5,35.5,164.0,3
764.25,19.5,-66.75,-22.5,-46.25,110.25,47.25,154.5,3
519.75,7.75,-176.75,-15.5,-47.5,19.0,44.75,76.5,3
264.75,18.75,-149.25,-21.0,-55.0,-89.5,43.0,36.75,3
-15.75,31.0,-126.25,-32.75,-41.5,-130.25,43.0,39.75,3
-221.0,40.0,19.5,-34.0,-32.75,-146.0,38.0,6.25,3
-196.25,26.0,175.0,-28.75,-30.75,6.5,34.25,-123.25,3
-122.5,3.0,210.5,-15.75,-37.5,89.5,37.75,-100.0,3
-47.5,-20.0,269.0,-16.5,-26.5,45.5,37.0,-5.75,3
-38.0,-38.0,184.5,18.25,-26.5,51.75,43.25,2.5,3
101.25,-18.25,131.25,11.25,-19.75,66.75,57.75,66.0,3
279.75,-16.0,54.75,9.25,-10.5,40.25,44.5,53.75,3
234.5,-17.25,-29.75,14.0,-9.5,25.75,34.25,31.5,3
198.25,-1.75,-105.5,0.75,-5.0,-42.25,42.75,47.0,3
59.0,23.25,-231.25,20.5,-3.75,-68.0,43.25,48.25,3
-57.0,22.25,-315.75,20.25,14.5,14.0,56.75,39.5,3
-165.5,9.25,-406.25,1.5,17.25,80.5,59.75,36.0,3
-252.75,30.5,-374.5,-19.5,18.0,170.75,52.75,38.0,3
-261.0,55.5,-268.75,-14.25,21.0,182.5,57.25,14.25,3
-221.0,60.25,-194.5,-14.5,30.75,101.75,64.25,25.75,3
-143.0,70.5,-117.5,-23.0,33.75,66.75,50.75,11.5,3
-89.0,49.75,-28.75,-17.5,26.75,10.0,47.25,14.25,3
-81.0,38.25,32.5,-6.75,37.25,2.25,48.75,25.0,3
-250.5,37.75,200.5,-23.0,36.75,25.75,31.25,18.75,3
-272.5,29.0,443.25,-44.5,37.75,26.75,26.25,14.0,3
-217.25,7.75,513.25,-48.25,53.0,64.75,12.5,11.0,3
-264.25,-50.5,382.25,-64.75,62.75,106.5,13.0,17.25,3
-191.25,-75.5,168.25,-51.25,71.0,104.75,19.5,1.5,3
-95.25,-66.5,-36.75,-27.25,62.75,71.25,14.5,10.5,3
-31.5,-28.5,-118.25,-35.0,57.25,-4.5,17.0,-3.75,3
83.25,3.0,-113.5,-27.5,74.0,-39.75,3.5,-10.25,3
200.75,48.5,-81.75,-28.75,68.5,-12.25,15.25,-30.25,3
362.25,83.5,-1.75,-25.25,78.75,-97.25,4.25,-55.25,3
499.25,56.0,73.75,-4.75,94.75,-111.5,4.5,0.75,3
412.0,33.75,106.25,17.5,88.75,-67.75,21.5,22.75,3
291.5,2.25,68.25,30.0,87.75,6.75,2.75,30.75,3
171.0,-30.5,-85.0,41.5,76.25,76.25,-0.75,43.5,3
-6.5,-45.0,-212.75,52.5,66.5,47.0,0.25,31.25,3
-41.75,-24.0,-227.75,43.25,69.5,91.75,-0.75,29.0,3
-24.0,-18.0,-186.75,29.75,60.75,65.5,-2.25,-3.75,3
-134.0,-14.75,-66.25,-7.75,44.25,67.75,-10.25,-6.75,3
-254.75,-11.0,29.5,-16.75,45.75,57.75,-2.75,28.75,3
-284.0,-16.75,109.75,-5.75,40.25,-21.75,-3.0,7.25,3
-289.0,-5.0,154.5,-20.0,42.5,-65.5,7.5,-18.0,3
-369.5,-6.0,118.0,-39.25,35.0,-18.0,1.25,-1.75,3
-317.75,4.5,20.75,-32.25,35.5,32.25,2.75,-20.75,3
-298.75,9.25,-35.75,-10.75,49.75,-4.5,12.25,-119.5,3
-387.25,8.75,-178.0,-19.0,29.25,68.5,19.75,-69.25,3
-387.0,-17.5,-521.75,-29.75,11.5,33.25,25.0,74.5,3
-354.75,-44.25,-742.0,-49.0,-4.0,-3.0,17.75,58.0,3
-125.0,-59.75,-532.5,-59.75,-13.25,-0.25,21.25,28.25,3
107.5,-22.5,-53.0,-68.75,-11.25,-55.0,21.75,26.75,3
298.5,7.75,349.75,-63.75,-9.25,-36.0,19.0,24.25,3
525.0,-1.75,646.75,-43.5,-7.25,-28.0,20.0,11.75,3
746.0,9.0,680.0,-42.75,-22.0,-17.0,38.5,-27.5,3
810.25,9.25,637.75,-44.5,-36.5,-30.5,46.75,-44.25,3
561.5,-7.5,633.0,-34.75,-51.0,3.0,47.0,-76.0,3
488.25,-37.25,550.5,-3.75,-48.0,23.5,47.5,-117.25,3
491.5,-16.75,397.75,7.5,-34.0,10.75,33.0,-106.75,3
424.25,6.0,211.25,22.75,-49.25,22.25,18.25,3.5,3
353.25,17.0,-15.25,49.5,-61.5,19.5,14.25,117.5,3
97.25,10.0,-264.25,68.75,-57.75,23.75,13.25,92.75,3
-16.5,-11.25,-425.75,84.0,-77.75,16.0,18.25,82.5,3
-110.5,-15.75,-531.75,45.0,-72.75,44.75,23.5,87.25,3
-276.75,-16.0,-505.0,18.0,-60.25,41.5,18.5,18.25,3
-415.0,-8.75,-431.75,7.75,-78.25,40.25,15.0,7.5,3
-529.0,-16.5,-306.25,-9.0,-90.75,-5.5,15.25,11.5,3
-467.5,-4.0,-231.25,-17.75,-87.0,-84.75,10.5,64.75,3
-392.0,34.75,-396.5,-44.75,-81.25,-81.25,20.75,106.0,3
-358.75,18.0,-597.5,-64.0,-79.25,-28.25,11.5,146.5,3
-322.75,10.5,-448.25,-88.0,-64.75,52.75,-3.0,136.0,3
-342.75,33.25,-227.75,-93.25,-54.0,57.25,1.25,101.75,3
-325.5,37.5,-34.5,-79.25,-58.5,48.75,-10.5,180.75,3
-249.25,37.0,376.0,-62.25,-75.75,-8.75,-8.25,100.75,3
-70.5,46.25,575.0,-47.0,-71.5,-96.75,-15.0,-55.5,3
99.0,69.25,547.0,-62.25,-50.25,-6.0,-11.5,-119.0,3
239.75,77.25,262.5,-48.0,-43.5,31.5,0.25,-142.5,3
418.75,67.5,-46.25,-37.0,-30.0,-38.5,-0.25,-148.5,3
535.25,70.75,-198.25,-39.0,-3.75,-0.75,11.75,-122.25,3
467.75,31.0,-256.5,-22.75,-9.75,-5.0,10.25,7.0,3
196.75,-37.0,-135.5,-31.0,-10.0,-14.75,2.0,71.0,3
14.75,-51.0,62.5,-25.0,-6.75,-11.0,0.25,61.0,3
-106.25,-49.75,315.25,-29.5,-12.25,-66.5,0.5,43.0,3
-191.0,-48.25,459.0,-16.25,-8.5,37.25,-5.5,-23.5,3
-189.0,-59.25,532.5,-9.0,-0.5,78.5,-5.75,0.75,3
-180.0,-37.75,503.75,-7.0,22.5,57.75,-3.5,35.0,3
-164.25,-29.0,397.0,19.0,36.75,100.75,6.75,26.0,3
-204.0,-39.0,275.75,32.75,51.0,93.75,6.25,59.75,3
-198.0,-16.25,71.5,54.0,66.0,117.0,1.75,75.25,3
-231.25,-32.75,-125.0,57.75,77.0,106.5,7.5,77.75,3
-243.0,-18.0,-222.0,47.0,82.75,130.0,4.0,89.75,3
-226.0,-0.5,-289.75,24.5,102.75,143.25,16.5,101.5,3
-221.25,-2.5,-354.0,9.75,125.0,98.75,15.0,101.25,3
-280.75,-26.5,-312.0,20.25,135.0,-23.75,21.25,82.0,3
-620.5,-32.5,-242.25,30.5,157.5,-30.25,25.5,52.5,3
-744.75,-48.75,-174.0,22.25,146.0,-28.5,35.75,36.75,3
-272.0,-61.0,-114.5,-5.5,148.25,-155.0,42.25,28.5,3
290.25,-27.25,-59.75,-13.25,161.0,-93.25,30.75,15.5,3
844.75,4.0,-36.5,-15.25,138.5,-9.0,44.0,0.0,3
1138.75,17.75,-117.5,-28.5,129.25,45.0,40.25,-0.25,3
861.5,9.0,-219.0,-51.5,108.75,80.0,29.25,17.25,3
478.0,37.0,-320.75,-71.0,89.5,94.5,27.75,38.75,3
221.25,31.25,-405.5,-81.75,103.25,136.0,30.25,65.0,3
152.25,6.0,-463.5,-78.25,130.75,182.75,29.0,62.25,3
165.25,-1.0,-422.25,-61.0,146.25,142.0,29.5,66.25,3
202.75,1.75,-115.75,-49.0,144.25,75.75,34.25,36.25,3
181.25,22.5,159.0,-40.25,159.25,18.0,24.75,9.25,3
112.75,37.75,288.0,-32.5,162.25,-62.0,18.75,-31.5,3
-16.75,70.25,387.25,-27.25,160.75,-106.0,17.0,-83.75,3
-152.25,84.5,329.5,-37.5,144.5,-148.5,17.5,-92.5,3
-138.0,86.5,200.5,-31.25,110.25,-167.5,30.75,-110.25,3
-173.25,63.0,124.75,-0.75,82.5,-215.0,22.0,-73.5,3
-228.25,4.0,226.5,19.5,82.0,-167.75,21.5,-41.25,3
-300.25,-3.0,296.0,6.0,98.75,-75.75,30.25,-20.0,3
-383.25,1.5,312.0,-15.25,111.5,-34.5,23.5,-17.75,3
-377.75,5.0,309.5,-14.75,173.5,25.75,27.5,16.75,3
-246.75,7.25,221.5,-16.75,213.25,40.5,29.0,94.25,3
-136.25,-2.25,159.75,-6.25,224.5,44.5,31.75,78.0,3
-70.75,15.5,52.25,6.5,215.0,60.0,25.25,60.75,3
-23.5,8.75,-23.25,2.5,198.0,71.25,33.75,87.75,3
-108.75,-14.25,-86.5,-10.25,192.5,91.75,33.5,101.0,3
-153.25,-57.25,-146.5,-34.25,189.5,81.0,31.25,117.0,3
-122.25,-88.25,-180.0,-41.5,193.25,69.75,30.75,104.5,3
-93.5,-65.0,-192.25,-26.0,203.75,78.0,27.5,67.25,3
23.75,-45.5,-191.75,1.75,213.75,93.5,36.5,39.5,3
187.25,-24.25,-155.75,0.0,202.0,74.25,37.0,6.25,3
228.5,-1.25,-192.75,-7.5,202.0,51.0,35.0,-12.5,3
203.5,-23.25,-221.0,-13.75,203.5,51.0,35.0,-28.25,3
64.5,-26.0,-160.0,-39.5,189.0,38.75,33.5,-16.0,3
-9.75,-12.5,-121.0,-42.0,194.0,38.25,36.5,38.25,3
-38.25,-17.5,-35.75,-44.75,187.75,39.0,39.25,97.0,3
-124.5,-15.75,-10.5,-40.5,187.75,59.5,29.75,84.25,3
-160.0,-2.25,-41.25,-21.75,136.75,74.5,40.0,58.75,3
-224.0,13.25,-138.0,-16.0,94.25,47.5,36.0,-55.5,3
-214.5,40.5,-121.0,-1.25,95.25,17.0,21.0,-312.75,3
-191.75,64.25,113.0,-6.0,124.0,48.25,21.75,-417.0,3
-106.0,74.0,278.0,-12.5,174.25,92.5,22.25,-180.0,3
-60.0,61.5,423.75,-20.25,124.25,96.0,12.5,33.25,3
-39.75,41.0,468.25,-40.75,43.5,58.25,6.0,13.75,3
-23.75,25.25,289.0,-32.0,6.25,-24.0,3.75,36.5,3
-75.75,3.25,75.75,-27.5,-57.0,-66.5,-9.5,35.0,3
-82.75,12.0,-245.0,-30.25,-64.25,-73.5,12.25,46.25,3
-74.0,25.0,-516.5,-8.0,15.0,-32.5,43.75,80.0,3
42.0,23.75,-513.25,-4.5,42.5,40.75,35.75,58.5,3
164.0,28.0,-322.5,6.75,8.75,58.25,19.5,46.5,3
291.5,29.0,-31.25,18.0,-76.75,66.0,20.5,-30.75,3
336.25,28.25,212.5,14.5,-155.5,59.0,29.0,-36.0,3
119.0,8.25,404.75,13.0,-205.5,42.75,18.5,27.0,3
-105.25,-21.5,471.0,-4.75,-244.5,42.5,22.0,21.5,3
-175.75,-18.75,443.25,-4.5,-253.75,11.25,26.75,-44.5,3
-217.75,-10.25,307.0,-27.5,-238.75,8.75,24.25,-79.0,3
-115.0,-3.5,97.0,-51.5,-235.0,53.25,25.5,-16.75,3
-57.25,2.0,-60.25,-43.25,-236.5,148.75,25.25,32.25,3
-104.0,-6.5,-177.75,-18.5,-195.25,212.75,29.5,18.75,3
-26.5,-6.0,-291.0,-5.5,-184.25,149.5,28.25,41.25,3
-81.0,-21.5,-358.0,-23.0,-171.75,118.75,31.25,22.75,3
-208.25,-30.0,-405.25,-37.5,-182.25,44.75,41.25,13.0,3
-213.25,-21.5,-429.0,-48.5,-207.5,-12.5,37.25,33.25,3
-16.0,-20.25,-427.25,-56.25,-208.0,-22.5,40.25,14.5,3
291.25,3.5,-434.25,-66.0,-214.0,-76.75,47.75,18.0,3
486.5,-4.5,-233.0,-51.0,-203.5,-52.75,43.75,10.5,3
532.5,-25.25,13.25,-16.0,-232.5,13.0,58.25,9.75,3
517.5,-1.75,121.25,3.75,-249.0,-10.5,62.5,4.5,3
500.25,18.0,55.25,21.0,-200.25,1.75,47.0,6.25,3
501.25,15.25,39.5,33.0,-158.75,95.0,35.75,9.0,3
455.0,-0.5,76.25,30.5,-119.25,88.0,17.75,18.0,3
267.5,-13.75,104.75,20.75,-84.75,58.25,-11.0,43.5,3
76.5,-11.25,194.75,4.25,-59.5,-16.75,-37.25,66.75,3
-128.25,3.25,182.0,-12.25,-49.5,-26.75,-55.25,54.25,3
-371.5,9.5,121.0,-7.25,-45.0,13.5,-53.5,24.25,3
-422.5,3.5,-48.5,-0.25,-4.75,19.75,-37.5,24.0,3
-386.75,-11.75,-70.0,1.0,41.75,91.0,-18.0,-10.75,3
-390.0,-13.5,-82.0,-10.5,39.0,94.0,13.5,-28.0,3
-468.5,-27.5,-126.75,-18.25,-39.25,75.75,25.25,-41.75,3
-528.25,-36.25,-91.5,-24.25,-63.25,89.5,8.25,-46.75,3
-348.5,-36.25,-59.5,-26.5,-2.25,122.5,12.25,-47.5,3
-213.5,-50.5,81.0,-23.5,64.5,108.0,29.25,-46.75,3
-158.0,-27.75,131.5,-28.0,113.25,105.0,25.75,-27.0,3
-1.5,-0.5,152.5,-25.0,112.5,120.25,25.75,-29.75,3
57.0,14.0,141.0,-30.0,90.75,122.75,24.5,-2.5,3
-104.0,45.0,134.5,-24.5,72.25,181.75,13.25,2.5,3
-2.0,88.5,119.0,-1.75,72.25,184.25,8.5,-10.75,3
481.0,111.0,103.75,0.75,77.75,146.75,-7.5,-14.0,3
893.0,108.75,82.25,-12.0,79.25,117.5,2.25,6.5,3
1061.5,93.5,26.5,-22.5,97.0,152.5,-0.75,44.0,3
739.75,62.5,-11.5,-22.75,107.5,171.5,-28.25,39.25,3
410.5,46.25,-103.75,-25.5,82.25,142.5,-5.5,20.75,3
137.75,37.0,-157.5,-43.75,50.5,94.75,-2.0,32.25,3
-127.25,15.0,-248.0,-66.0,31.0,-56.0,8.5,26.0,3
-293.0,-12.5,-282.75,-62.0,37.25,-193.75,27.5,-12.25,3
-388.0,-11.0,-361.75,-37.5,50.5,-273.75,15.0,-25.0,3
-384.75,-5.25,-465.0,-40.5,51.25,-334.0,7.0,-10.5,3
-531.75,-2.0,-304.75,-41.0,34.75,-265.25,7.75,-54.0,3
-548.5,24.25,-111.75,-28.5,36.25,-63.75,29.0,-118.25,3
-419.25,12.0,-40.25,-18.75,23.5,73.0,30.25,-51.25,3
-292.5,-21.25,-11.0,2.5,21.25,52.75,40.75,-16.25,3
-221.0,-25.5,-30.5,-8.75,46.0,9.75,37.5,-10.25,3
-212.5,-36.75,-44.5,5.0,60.5,-0.25,19.0,81.0,3
-267.5,-56.75,101.75,29.5,76.0,-40.75,9.25,104.25,3
-376.25,-34.75,344.0,8.25,41.0,-81.0,1.75,134.0,3
-348.0,-28.5,567.75,3.75,2.0,-98.75,-18.0,103.25,3
-243.0,-27.25,665.25,-7.25,-60.5,-98.0,-17.0,45.25,3
-3.25,-31.5,593.75,-19.5,-129.5,-81.0,-2.25,45.25,3
219.5,-52.75,429.5,-16.25,-117.0,-50.0,25.0,52.0,3
304.0,-34.5,131.0,-14.25,-83.25,1.0,89.25,24.0,3
307.75,-45.0,-56.25,-24.75,-48.25,49.25,116.5,-12.75,3
297.75,-88.5,-127.5,-6.5,-20.25,64.75,139.0,81.25,3
310.25,-95.0,-201.0,6.5,-20.75,33.0,110.25,73.5,3
253.25,-78.75,-207.5,-14.0,-14.5,-7.0,80.75,10.0,3
170.25,-57.5,-210.75,9.5,16.75,-25.0,72.5,49.25,3
144.0,-41.0,-213.5,8.25,15.75,6.0,58.25,52.0,3
109.25,-25.25,-193.75,1.5,-9.25,55.0,55.75,21.25,3
-7.5,22.0,-203.25,-7.75,-58.75,62.0,42.25,-51.5,3
-50.25,54.5,-178.25,-20.0,-44.75,70.25,38.5,-48.75,3
-93.0,51.0,-136.25,-13.0,-11.5,117.75,25.0,65.25,3
-166.25,42.25,-107.25,-31.25,0.5,183.0,16.5,58.5,3
-126.25,39.75,0.75,-36.0,51.5,171.0,1.75,56.5,3
-96.0,38.0,133.0,-37.25,38.75,99.0,14.5,75.75,3
-2.0,44.25,240.0,-45.5,47.25,-4.75,8.0,40.0,3
6.0,32.0,287.75,-42.75,52.5,-112.5,-3.0,67.25,3
-169.25,2.0,264.25,-33.25,20.0,-176.5,5.5,65.0,3
-267.0,-1.25,203.5,-23.0,28.75,-278.25,3.25,69.75,3
-247.75,-9.75,81.25,-26.0,33.25,-337.75,11.75,79.25,3
-172.25,-4.25,-111.5,-29.25,47.75,-238.0,4.75,119.5,3
-239.25,-8.25,-296.25,-30.25,33.0,-149.0,16.25,128.25,3
-294.5,-8.5,-370.25,-39.0,17.25,-100.0,9.75,77.5,3
-288.75,13.75,-350.25,-40.5,51.25,-40.75,20.5,49.25,3
-390.25,6.75,-300.25,-23.75,42.75,-37.5,25.75,29.5,3
-437.5,7.0,-222.5,-16.0,17.0,-43.25,17.25,37.5,3
-337.5,11.0,-17.5,-25.75,31.0,-43.25,31.5,-40.5,3
-119.25,11.75,130.75,-25.0,52.75,-23.75,21.0,-54.75,3
220.25,-4.25,119.25,-20.25,29.75,-16.5,32.25,46.5,3
437.5,-20.25,169.75,-31.25,5.5,-19.75,34.0,54.0,3
608.5,6.5,179.5,-17.25,22.25,6.5,32.25,-16.5,3
811.5,17.0,271.0,-1.5,51.0,14.75,34.0,-48.25,3
678.5,6.0,361.5,-6.25,42.0,18.5,19.5,-32.0,3
442.25,4.75,369.0,8.0,0.5,24.0,29.75,-10.0,3
363.5,13.75,379.75,14.25,17.5,49.5,29.5,4.75,3
263.25,47.25,280.75,28.75,43.5,66.25,44.25,22.5,3
254.25,28.5,156.75,25.25,8.0,58.0,40.25,40.75,3
263.0,16.5,11.25,2.25,7.25,47.75,32.0,55.5,3
98.25,13.0,-145.5,-1.25,-8.25,44.5,42.75,70.75,3
-13.25,-15.0,-261.25,-3.75,-63.0,36.5,31.5,56.75,3
39.75,-1.5,-367.75,2.5,-62.5,23.75,23.0,54.0,3
78.5,-2.5,-386.0,3.5,-14.25,47.75,40.0,52.75,3
-60.0,-8.0,-228.5,16.0,57.5,80.5,63.5,33.75,3
-217.75,-24.75,0.0,-1.25,35.5,143.75,64.75,-15.25,3
-450.0,-33.5,209.25,-10.5,-33.75,240.75,54.0,-82.5,3
-554.25,-12.5,341.5,1.0,-42.5,164.75,51.0,-93.0,3
-538.0,22.0,332.75,-19.5,13.5,109.0,42.75,-50.0,3
-645.5,54.75,254.5,-14.25,35.0,71.25,21.75,20.0,3
-728.5,65.25,130.25,-9.5,54.5,-117.25,14.5,61.0,3
-724.5,55.5,-20.5,-12.75,109.5,-116.0,20.75,39.0,3
-522.75,31.25,-155.0,-43.75,99.0,-36.75,10.5,60.25,3
-174.5,-6.25,-246.5,-60.25,83.0,-68.5,-13.5,92.75,3
274.0,-44.25,-307.25,-51.0,72.5,-156.0,-40.75,54.25,3
626.0,-40.75,-314.5,-47.25,70.0,-94.5,-40.75,46.25,3
962.5,-35.75,-325.25,-26.75,67.5,70.75,11.75,34.25,3
1184.5,-13.0,-340.0,-25.5,76.0,76.0,32.25,16.25,3
954.5,28.5,-328.5,-23.25,94.5,66.5,21.75,36.5,3
419.25,55.25,-342.5,-12.75,98.25,69.25,21.25,48.0,3
32.25,64.75,-236.0,1.5,103.0,55.75,16.75,43.0,3
-103.25,39.5,-7.75,7.5,98.5,55.0,34.25,29.25,3
-201.75,13.5,120.0,-4.5,73.0,41.75,31.75,11.0,3
-211.25,2.25,219.25,-13.75,73.75,58.0,10.5,-34.75,3
-285.5,0.75,290.75,-11.25,80.75,96.0,13.75,-26.5,3
-298.5,-11.25,266.5,-16.25,100.75,108.75,11.75,57.75,3
-232.75,-24.75,162.0,-21.5,137.25,91.0,-7.75,114.25,3
-133.25,-34.5,27.25,-5.0,143.0,72.5,-21.0,78.5,3
-43.0,-40.5,-90.25,-10.5,121.75,40.25,-7.25,60.0,3
-56.25,-18.75,-118.75,3.25,92.0,-45.75,12.0,2.25,3
-56.5,-2.75,0.75,2.0,75.5,-163.25,15.75,-93.25,3
-102.0,-6.75,130.0,-17.75,80.25,-108.0,39.5,-56.25,3
-33.75,-14.25,153.0,-9.0,125.0,34.25,61.0,-19.0,3
-21.5,-27.25,130.75,-16.0,129.75,0.0,40.5,-48.0,3
-128.25,-29.25,12.25,-34.0,126.75,11.0,32.5,-145.25,3
-357.75,-36.0,-186.25,-45.25,138.25,24.75,29.75,-172.25,3
-619.75,-43.0,-384.75,-38.75,128.0,-22.75,23.5,-102.25,3
-539.75,-38.5,-381.75,-42.0,161.0,-30.25,31.75,-68.5,3
-173.5,-42.75,-53.25,-41.5,163.25,4.75,26.0,-7.75,3
198.75,-24.75,166.25,-32.0,148.5,17.0,10.25,30.25,3
482.75,-31.0,223.25,-34.75,148.75,-12.5,-13.75,23.25,3
579.75,-29.0,51.5,-36.0,175.5,32.0,-12.0,3.25,3
512.25,27.5,-283.75,-32.25,193.0,35.25,8.5,-5.5,3
276.25,68.0,-395.5,-37.75,167.5,46.0,3.0,5.0,3
-83.5,67.75,-458.0,-42.0,122.75,41.0,-11.75,8.75,3
-261.25,33.0,-528.0,-32.75,74.0,25.25,-6.5,25.25,3
-293.0,28.25,-356.0,-29.75,46.25,39.25,5.0,21.0,3
-240.25,18.5,-19.0,-5.5,57.25,41.0,4.25,18.25,3
-247.0,15.75,277.75,16.0,81.75,63.0,14.25,34.75,3
-305.75,-2.25,496.5,14.25,106.0,78.5,31.75,61.5,3
-350.75,-28.25,666.0,17.75,111.75,74.25,41.75,77.5,3
-312.5,-14.0,826.75,10.25,119.75,68.25,34.0,72.75,3
-177.0,-4.25,730.5,-2.0,183.75,90.25,33.25,66.75,3
-119.25,-2.0,576.0,-27.0,215.0,77.0,67.5,46.0,3
12.0,10.75,409.0,-32.5,208.0,60.0,65.5,22.5,3
177.75,18.75,165.25,-40.5,198.75,-11.0,36.75,60.25,3
200.5,20.75,64.25,-29.25,194.25,-23.25,25.75,78.5,3
180.5,36.0,-39.5,-11.5,195.5,63.0,39.75,31.75,3
131.0,40.75,-107.5,-15.5,179.0,65.75,31.0,42.25,3
105.5,47.0,-150.75,-6.5,168.0,73.5,16.75,113.5,3
94.25,40.75,-238.25,4.5,171.0,52.0,37.5,117.5,3
89.5,33.75,-307.25,33.75,170.75,60.0,53.0,41.75,3
83.75,14.25,-349.75,37.0,170.25,66.75,57.5,-75.75,3
-46.0,-25.25,-366.0,18.25,169.0,41.5,59.25,-146.25,3
-220.25,-45.75,-374.25,2.0,142.75,63.25,61.5,-118.0,3
-330.75,-25.25,-320.0,-13.25,134.75,40.0,44.75,-71.5,3
-480.0,8.25,-302.25,-20.25,126.0,16.25,43.25,-35.75,3
-587.5,-2.0,-339.0,-14.0,65.5,-90.25,48.0,-24.75,3
-480.25,-20.0,-334.5,-14.75,4.25,-211.25,34.75,-22.5,3
-309.25,-24.5,-224.25,-19.75,-27.25,-194.25,28.5,-68.75,3
-14.75,-9.0,-57.75,-17.0,-52.5,-164.75,21.75,-34.25,3
314.0,-4.25,99.75,-25.5,-59.0,-97.75,19.5,132.5,3
427.75,-10.75,223.75,-30.25,-82.75,-34.5,3.75,160.5,3
351.0,-11.25,228.25,-24.25,-81.75,-39.25,-10.5,113.25,3
324.5,6.75,184.5,-38.25,-73.25,0.75,-30.0,116.5,3
349.75,16.0,182.5,-40.25,-113.25,43.5,-37.75,-22.75,3
134.0,-6.75,113.0,-39.75,-140.5,27.75,-20.5,-270.75,3
273.0,0.25,-7.0,-39.75,-158.75,19.25,-3.5,-228.0,3
631.25,9.75,4.75,-27.25,-192.0,75.75,-13.25,-8.0,3
723.75,27.25,72.75,-20.75,-249.5,125.0,-26.75,-45.0,3
655.25,39.25,113.75,-18.5,-291.0,130.25,-14.75,-10.75,3
372.5,27.25,109.75,-24.25,-245.25,155.5,-12.25,57.0,3
159.5,9.75,89.25,-34.25,-183.5,134.25,-14.75,27.75,3
22.75,-8.75,18.75,-35.5,-169.75,108.75,-8.75,50.25,3
-139.5,-30.0,-104.0,-29.75,-186.75,91.75,-5.25,20.0,3
-281.75,-31.0,-318.75,-32.25,-223.0,-32.75,-7.5,42.5,3
-235.5,-21.0,-499.5,-23.75,-237.25,-92.25,-5.75,41.75,3
-258.5,-45.75,-508.0,-26.0,-235.5,-31.5,-8.5,20.5,3
-210.25,-51.75,-524.25,-19.75,-222.0,-69.0,-6.5,28.5,3
15.75,-45.5,-395.75,-27.75,-205.75,-14.0,-12.75,48.75,3
46.0,-44.25,-126.75,-24.25,-168.0,29.5,-5.75,70.75,3
79.75,-28.25,155.75,-5.75,-129.5,-23.75,-13.75,73.25,3
83.5,-33.5,326.25,-13.5,-131.75,27.25,-22.75,93.0,3
64.5,-11.5,378.75,-12.5,-93.0,44.25,-0.25,107.75,3
3.25,20.5,499.0,-16.0,-71.25,28.0,-8.5,35.0,3
-167.0,39.25,469.25,-18.0,-68.5,8.5,-5.25,-41.0,3
-241.75,88.25,381.25,-11.75,-77.25,17.5,3.5,-12.75,3
-293.25,137.5,269.75,11.75,-112.75,45.0,20.0,-59.75,3
-474.75,131.75,25.0,8.5,-71.25,51.5,56.0,-137.5,3
-407.25,97.0,-170.25,-0.25,-38.25,72.25,55.75,-127.25,3
-257.25,59.25,-144.25,4.25,-49.75,70.0,33.25,-56.75,3
-292.0,14.25,-110.75,1.5,-74.75,40.75,16.25,28.5,3
-281.5,-1.5,-98.25,4.25,-80.5,41.0,10.25,19.5,3
-281.5,-13.5,25.75,-5.75,-78.25,33.25,18.0,-7.25,3
-107.75,-55.5,89.0,-7.5,-62.5,64.25,26.0,8.5,3
102.0,-77.5,115.5,-10.25,-32.75,236.5,21.75,27.75,3
343.5,-87.0,-121.5,-26.75,-46.5,307.75,24.5,60.5,3
568.5,-71.0,-405.0,-49.5,-46.25,190.25,11.5,78.75,3
617.25,-38.0,-259.25,-64.5,-60.0,93.25,4.5,75.25,3
586.25,-24.75,-70.25,-51.5,-94.75,6.25,20.0,62.0,3
219.75,-5.0,-11.25,-54.5,-102.75,-58.0,27.0,73.75,3
-46.5,-8.0,168.5,-56.75,-75.0,-78.25,29.5,73.75,3
-122.25,-10.25,179.25,-26.75,-35.0,-84.5,14.0,82.5,3
-291.0,-16.75,160.75,-17.75,-16.75,-114.75,11.75,103.75,3
-371.5,-11.75,253.25,-28.25,-13.5,-174.75,-0.75,72.0,3
-452.75,-17.5,287.0,-21.5,-32.75,-158.25,-6.75,32.5,3
-559.75,-46.25,280.0,-5.5,-36.25,-81.5,21.0,2.5,3
-701.25,-64.0,87.5,27.75,-34.75,-123.25,24.75,19.25,3
-654.25,-48.25,-94.5,43.0,-40.0,-95.25,46.0,-18.0,3
-458.25,9.25,-202.0,49.75,-51.25,47.0,58.5,-149.75,3
-204.25,24.75,-195.75,38.25,-59.5,80.5,41.25,-167.75,3
70.75,57.75,-69.0,41.25,-64.5,88.75,42.75,-120.75,3
429.0,76.0,73.0,25.0,-69.75,78.25,41.25,-48.5,3
722.0,63.75,209.25,-5.5,-75.5,102.75,39.75,-2.0,3
736.25,67.5,231.25,-6.5,-69.5,112.0,45.25,19.25,3
711.5,50.0,200.75,-7.5,-38.5,75.25,42.25,82.5,3
579.25,16.75,144.5,0.75,-51.75,126.0,35.25,67.75,3
364.75,-25.5,7.25,-21.5,-62.75,152.75,41.75,19.0,3
190.25,-5.75,-151.25,-8.0,-48.75,89.5,66.75,3.25,3
-8.5,8.5,-212.5,-5.25,-46.25,89.75,73.75,45.75,3
-295.0,-3.0,-378.0,-12.5,-11.75,90.5,62.0,45.0,3
-333.75,7.5,-525.25,-21.25,22.5,45.5,40.25,53.0,3
-231.75,15.75,-428.25,-21.0,34.25,54.0,34.75,104.5,3
-231.5,10.0,-355.75,-1.5,13.75,10.75,34.0,104.25,3
-165.75,16.75,-267.0,-28.25,-18.0,-41.0,24.75,74.0,3
-109.25,5.25,-126.25,-32.0,-30.75,-27.75,10.0,-33.0,3
-101.0,-19.0,24.5,-51.5,-46.0,31.75,5.75,-101.75,3
-160.5,-5.75,220.75,-95.25,-94.0,102.25,28.0,-52.25,3
-219.5,-14.5,323.75,-88.25,-109.75,124.5,39.25,90.25,3
-133.0,-11.0,349.5,-49.5,-67.75,150.75,32.5,160.5,3
-12.25,-7.75,291.75,-27.25,-19.5,164.5,27.25,74.5,3
2.25,-12.25,220.0,-25.25,25.0,191.5,27.0,10.0,3
47.0,-17.5,204.0,-19.25,19.5,204.5,22.5,62.25,3
107.75,-15.5,158.25,-20.75,-9.75,190.75,18.0,78.5,3
124.25,-36.0,7.75,-17.5,-7.5,185.75,11.5,-36.75,3
-38.0,-62.5,-142.0,-19.75,-4.0,140.25,21.5,-31.0,3
-253.5,-45.25,-193.0,-32.25,-8.75,75.5,33.75,21.5,3
-168.5,-32.0,-267.75,-27.5,-12.5,152.25,31.25,-31.5,3
-29.0,-11.75,-316.5,-40.0,-15.75,216.75,35.5,-117.75,3
168.75,3.0,-325.75,-43.75,-12.0,178.75,42.25,-91.25,3
311.25,32.5,-212.75,-52.75,-11.25,181.5,41.5,33.25,3
364.25,55.75,-120.5,-68.75,-15.0,61.5,39.75,41.0,3
330.25,52.0,-192.25,-68.5,3.0,-53.0,45.75,-5.75,3
46.5,19.0,-215.75,-66.5,22.5,-44.75,40.25,-1.25,3
-215.25,-11.0,-275.75,-57.75,33.25,-43.25,28.5,73.75,3
-367.0,-12.0,-379.0,-40.75,34.0,-87.5,24.75,83.0,3
-314.5,-12.25,-253.25,-31.25,40.0,-128.75,32.0,26.25,3
-240.25,-19.25,-61.75,-6.25,60.5,-116.0,34.5,25.75,3
-166.5,-27.25,160.5,16.0,59.75,-71.0,22.25,-20.0,3
-13.25,-24.5,414.0,12.5,61.5,-48.5,24.25,-33.75,3
154.25,-20.5,541.25,33.75,56.25,-52.25,13.25,-60.5,3
-17.5,-11.25,614.75,39.25,30.5,3.0,20.0,-90.25,3
-283.75,-5.75,570.75,45.25,20.25,19.5,15.25,29.25,3
-203.0,35.0,506.0,38.75,23.5,-3.0,5.0,89.75,3
-107.5,46.5,363.25,37.25,36.75,34.5,12.75,54.5,3
0.0,30.25,176.5,43.0,81.75,55.75,13.5,64.75,3
-116.25,23.25,148.0,11.75,83.25,39.75,11.25,40.75,3
-103.5,31.5,16.75,8.5,64.0,43.75,1.75,38.75,3
93.75,57.5,-59.5,-2.0,83.5,16.0,20.0,60.0,3
202.5,36.0,-125.5,15.25,87.25,-2.75,11.25,93.25,3
315.0,26.75,-238.75,20.5,97.75,15.5,18.5,97.25,3
290.75,7.0,-326.25,-6.75,77.0,-36.5,18.75,94.75,3
198.5,7.75,-443.25,-13.25,79.25,-21.25,14.0,102.0,3
87.75,33.0,-460.0,-31.5,125.75,44.75,21.0,89.75,3
173.25,12.75,-490.5,-46.5,152.5,38.25,13.75,80.5,3
189.0,1.0,-416.25,-47.0,187.75,33.5,14.0,51.75,3
238.25,6.0,-296.75,-32.0,185.25,58.75,21.75,9.25,3
313.5,11.75,-94.5,-11.75,171.75,83.0,32.25,-43.0,3
229.0,14.0,155.25,18.5,159.5,81.5,24.0,-39.25,3
163.75,14.5,313.0,16.0,137.75,86.25,34.75,-9.75,3
-109.75,0.25,431.75,-7.5,151.5,60.25,34.5,11.5,3
-299.5,4.75,393.75,-13.5,161.0,9.0,11.25,35.25,3
-285.5,-13.25,146.0,-27.5,147.5,-60.25,7.0,59.0,3
-249.0,-26.25,-201.25,-26.0,130.0,-143.25,-1.25,56.0,3
-239.0,-13.0,-316.75,-25.5,120.25,-171.75,-3.0,66.0,3
-227.5,-29.5,-277.25,-22.0,122.75,-116.5,-0.5,50.25,3
-117.25,-33.5,-216.25,-13.5,123.25,0.75,-7.25,-46.0,3
72.75,-17.25,-127.75,-21.5,133.0,-23.5,-8.25,-98.75,3
196.5,-24.75,98.25,-23.0,135.25,-149.5,-11.25,-84.25,3
138.0,-26.0,467.0,-21.0,138.25,-66.0,-4.75,-60.25,3
-11.25,-2.0,572.25,-26.5,151.0,5.75,-18.25,-67.25,3
-134.5,-5.0,588.5,-34.25,135.25,-27.75,-18.0,13.5,3
-213.5,2.0,517.0,-41.75,127.25,0.5,-11.0,110.5,3
-381.75,13.5,378.25,-48.5,114.75,-45.5,-18.25,61.75,3
-446.5,4.75,237.75,-51.75,104.75,-41.5,-13.5,35.0,3
-526.5,9.5,30.5,-36.25,107.25,2.25,-18.25,67.75,3
-494.5,11.0,-163.25,-28.75,95.75,44.5,6.75,13.5,3
-274.5,10.25,-288.5,-24.0,111.75,53.25,6.5,-103.0,3
-220.25,3.5,-340.5,-5.0,126.75,18.25,24.75,-133.25,3
-53.75,4.0,-491.75,15.0,121.75,40.0,49.75,-134.25,3
102.75,4.75,-485.75,19.0,126.25,47.5,38.25,-63.75,3
181.75,0.5,-410.0,7.25,126.5,115.25,47.0,-3.0,3
204.0,-7.0,-478.5,-11.5,118.5,257.75,40.25,22.0,3
249.75,6.5,-417.25,-30.75,115.0,351.5,45.0,35.0,3
405.0,18.0,-293.25,-33.5,89.25,255.0,42.0,47.75,3
319.75,-1.5,-249.75,-41.25,42.0,136.0,37.5,65.5,3
14.75,7.25,-323.0,-48.75,38.0,16.0,42.75,19.25,3
-282.25,5.0,-218.0,-34.0,104.75,-115.75,31.5,43.75,3
-204.75,1.5,23.0,-35.25,134.25,-190.25,25.0,102.0,3
5.25,25.75,210.5,-29.5,123.5,-245.5,22.5,73.5,3
210.75,8.75,444.5,-30.0,117.5,-277.75,14.5,-6.5,3
360.75,-26.5,480.5,-39.25,97.25,-373.75,33.75,-91.75,3
288.25,-26.75,420.5,-35.75,72.0,-283.75,46.75,-47.0,3
184.0,3.75,249.5,-39.5,65.25,-219.0,23.75,59.75,3
71.5,12.25,121.75,-3.25,73.5,-228.75,13.5,79.25,3
36.0,-5.25,129.75,23.75,80.75,-105.5,21.5,124.25,3
35.5,0.75,151.75,12.25,70.75,-25.75,28.75,182.75,3
25.75,9.75,267.5,24.0,59.0,41.5,27.75,221.75,3
48.5,-10.5,234.75,24.0,63.0,41.0,28.25,191.5,3
40.25,-20.5,128.0,7.25,61.0,-27.5,32.5,136.25,3
-13.75,3.75,41.5,16.5,64.5,35.0,45.25,61.75,3
-161.5,27.25,-15.5,18.5,62.0,135.75,68.25,-98.5,3
-273.0,39.0,-26.25,6.25,40.0,122.0,95.25,-191.25,3
-314.5,24.5,-7.0,-5.0,34.0,110.5,77.75,-199.0,3
-425.25,15.25,-55.75,-8.25,17.75,93.25,54.25,-86.25,3
-452.25,8.25,-250.0,-21.5,-4.25,81.75,59.5,-1.5,3
-346.0,-21.0,-326.25,-22.25,-13.25,60.75,56.0,-2.25,3
-253.25,-15.0,-314.0,-26.25,-15.25,42.25,67.25,39.75,3
-111.5,-6.5,-244.75,-61.25,-21.25,50.75,48.25,22.75,3
67.25,3.0,-110.0,-64.0,-38.25,54.5,21.25,29.5,3
158.5,12.75,-71.0,-69.0,-39.25,81.0,18.5,24.0,3
156.25,14.0,-126.25,-65.75,-20.25,93.0,3.5,30.5,3
287.5,-13.0,-117.0,-61.75,-6.0,137.75,-2.0,58.5,3
585.25,-21.75,-84.75,-39.25,-5.75,158.5,16.75,5.25,3
660.5,-23.0,-91.75,-12.0,-7.25,148.5,35.75,-25.5,3
674.25,-4.5,-56.5,0.0,-16.5,134.25,51.25,-48.5,3
732.25,15.25,-78.75,23.25,-47.75,108.5,51.0,-61.0,3
471.0,6.75,-195.75,23.75,-56.5,68.25,32.75,-34.75,3
93.75,11.5,-323.5,20.75,-40.5,24.25,30.5,37.75,3
-68.25,8.0,-348.0,-0.25,-44.0,20.5,14.25,95.25,3
-108.75,-3.0,-293.5,-2.75,-46.5,21.75,25.0,37.5,3
-18.0,-1.25,-220.0,-6.25,-52.75,13.75,29.75,-125.0,3
59.0,13.75,-54.0,-26.25,-36.5,28.75,23.5,-169.5,3
114.5,-3.25,152.75,-38.75,-27.0,41.75,31.25,-41.0,3
113.0,-23.0,298.5,-42.5,-39.0,-33.5,26.5,46.5,3
47.5,-23.5,355.25,-19.25,-63.25,-37.75,35.5,58.75,3
-136.5,10.0,242.0,-41.0,-104.25,40.75,47.25,26.0,3
-309.5,34.75,70.25,-60.5,-96.5,25.75,54.25,-41.25,3
-294.25,37.75,171.75,-39.5,-90.75,23.25,41.75,-23.25,3
-256.0,26.0,341.25,-40.25,-76.5,13.0,35.0,64.5,3
-112.75,-0.25,326.0,-23.75,-51.5,71.0,18.25,63.75,3
82.25,6.5,437.75,-19.0,-18.0,108.75,20.5,63.25,3
198.25,12.0,449.5,-23.75,-6.5,71.75,31.25,72.5,3
24.75,12.0,397.0,14.75,-10.25,72.5,22.75,60.0,3
-360.5,3.5,412.75,52.5,-18.25,48.25,10.0,44.5,3
-585.5,14.0,365.0,49.0,-22.25,99.75,-17.25,-22.25,3
-572.0,18.0,300.25,35.75,-8.5,132.25,-11.5,-61.25,3
-553.0,-5.0,138.0,30.5,-40.5,89.25,-14.25,9.75,3
-603.5,-18.0,-10.75,1.0,-71.5,43.0,-13.0,63.25,3
-661.75,-25.75,-87.75,-22.0,-66.25,26.5,11.75,59.0,3
-552.5,-33.25,-200.5,-40.25,-32.0,2.5,23.25,80.75,3
-224.75,-35.25,-337.0,-35.5,-21.5,-1.25,27.75,60.5,3
-39.25,-39.75,-355.25,-3.0,-29.0,-11.5,25.0,26.0,3
67.75,-38.25,-348.5,-1.25,-33.0,-64.0,17.25,-21.0,3
115.25,-27.0,-419.0,-18.0,-27.25,-43.0,5.75,-67.75,3
146.0,-9.5,-425.25,-16.5,-34.25,1.5,4.0,-51.5,3
293.25,-1.0,-439.0,-15.25,-52.25,41.5,2.75,20.0,3
397.25,-13.75,-356.25,-13.75,-42.75,48.75,8.25,91.5,3
330.75,-5.75,-159.5,-20.75,-56.5,42.75,-8.25,112.5,3
350.75,2.25,-19.75,-33.5,-41.25,65.0,-28.0,84.0,3
439.75,-11.0,168.5,-50.75,-25.25,179.25,-23.0,1.75,3
310.75,5.5,353.25,-56.0,-17.75,256.25,-23.75,-36.25,3
141.5,21.25,398.75,-47.0,-18.25,255.75,3.0,-113.25,3
25.0,20.25,292.75,-42.0,-20.0,206.5,19.25,-149.0,3
-78.25,-10.25,50.5,-28.75,-19.5,80.75,34.0,-77.25,3
-135.75,-32.5,-181.25,-16.0,-18.25,-28.25,42.5,-43.25,3
-283.75,-14.5,-296.75,-23.75,-9.75,-176.0,33.5,-0.5,3
-464.75,-1.25,-338.0,-24.75,-8.0,-289.5,34.25,-20.5,3
-548.25,10.0,-239.0,-25.25,-0.75,-388.75,11.75,-7.75,3
-523.25,11.5,-148.5,-44.75,-2.75,-342.0,2.75,131.5,3
-376.5,5.0,-58.25,-48.25,7.75,-129.75,-6.75,148.25,3
-179.0,3.75,72.0,-40.75,13.0,-61.75,-11.25,144.0,3
127.25,-1.5,46.0,-20.5,13.25,-1.0,-2.5,166.25,3
481.25,-7.5,69.5,-8.5,-1.25,42.0,3.5,50.75,3
707.25,-6.0,81.0,-11.75,-11.5,30.0,27.5,-32.5,3
900.0,20.0,149.0,-5.25,9.0,52.25,42.25,-71.25,3
995.25,29.75,237.0,-17.75,-0.25,49.25,35.75,-117.75,3
891.5,14.75,240.75,-22.5,15.5,59.5,31.25,-107.0,3
507.25,6.25,167.25,-12.75,44.0,90.5,20.75,-5.75,3
115.75,-5.5,1.0,10.0,44.25,128.25,-1.75,18.5,3
21.25,-15.75,-119.0,29.75,65.0,151.25,8.25,40.25,3
-189.75,-24.25,-192.75,27.5,57.5,208.25,-0.25,69.0,3
-312.75,-4.25,-175.75,7.0,46.25,299.25,-18.5,-14.5,3
-244.0,9.0,-185.25,-9.0,54.25,284.5,-14.25,-1.5,3
-230.0,4.0,-190.25,-11.0,56.75,191.5,-2.0,59.25,3
-222.25,-2.75,-158.75,-28.75,42.5,27.5,5.0,73.0,3
-391.5,-1.0,-89.0,-45.75,35.0,-202.75,3.0,82.0,3
-553.5,-2.25,-55.0,-50.75,33.25,-312.75,5.0,69.75,3
-667.25,-13.0,-107.75,-44.75,24.75,-273.5,4.75,46.5,3
-766.5,-11.75,-124.75,-33.0,29.25,-234.25,4.5,15.25,3
-731.5,-31.0,-120.75,-22.5,24.75,-159.5,12.25,-1.5,3
-500.0,-20.75,-32.25,-30.25,34.0,-106.75,21.5,-8.25,3
-166.25,-9.5,70.75,-40.5,47.75,-45.75,29.0,-8.75,3
169.5,-2.25,86.75,-50.25,39.0,67.0,40.0,13.0,3
493.75,25.5,5.75,-26.0,17.25,78.5,24.75,43.25,3
647.75,19.25,-70.25,-12.75,11.5,83.0,6.5,54.0,3
462.75,21.0,-113.0,-10.75,13.5,81.0,-7.25,66.5,3
233.0,26.5,-100.0,-3.5,22.25,83.0,-6.75,24.0,3
80.5,10.25,6.5,-6.0,23.5,120.25,2.75,-28.5,3
-176.75,-10.25,58.5,8.25,29.5,95.5,11.75,-13.5,3
-76.25,-31.75,184.25,-3.0,32.25,72.75,37.25,-44.5,3
265.0,-19.75,395.5,3.75,15.75,70.5,29.25,-97.5,3
523.25,-10.75,343.5,1.5,10.25,75.0,27.0,-59.5,3
621.5,0.75,172.0,4.75,1.25,144.5,27.25,-25.75,3
334.5,17.5,118.0,21.25,10.0,214.5,36.0,-45.0,3
-107.25,3.25,71.75,10.5,31.5,148.0,48.0,-0.25,3
-60.0,28.75,16.25,14.75,51.5,19.5,33.75,73.5,3
41.75,46.25,-100.25,8.75,61.0,20.25,31.5,56.25,3
-107.75,54.25,-182.25,1.5,59.5,10.5,25.25,56.5,3
-253.75,49.75,-11.5,-8.5,47.5,-27.75,32.5,66.75,3
-424.0,19.0,133.75,-31.0,35.75,-58.5,39.5,36.25,3
-252.0,12.25,137.5,-26.5,42.0,-138.25,37.75,31.75,3
-246.0,7.0,74.5,-11.25,78.0,-141.5,36.5,1.75,3
-362.5,-1.0,-61.75,-4.0,115.25,-186.25,18.5,-1.0,3
-356.0,-29.75,-189.5,-9.0,101.5,-188.75,-3.75,-5.0,3
-418.5,-29.5,-300.75,-19.5,87.25,-56.75,4.5,-1.75,3
-406.5,-11.5,-384.5,-12.0,91.5,53.5,7.75,26.0,3
-381.0,-7.25,-431.0,-13.25,106.25,91.25,12.0,31.0,3
-318.75,-6.75,-261.0,-24.5,94.25,79.75,13.75,41.25,3
-366.0,-17.25,-93.25,-38.25,43.25,43.25,15.0,33.5,3
-410.75,-3.75,-32.25,-58.0,12.25,-9.5,9.0,24.25,3
-175.75,-10.25,128.75,-60.25,19.0,-4.75,4.5,-0.75,3
204.25,-17.25,307.0,-56.75,25.5,-1.75,16.0,7.75,3
399.5,-13.5,376.5,-61.25,24.25,-32.25,2.75,21.5,3
631.75,-9.25,412.75,-45.75,38.25,-43.0,8.5,28.0,3
680.25,-23.25,425.75,-31.75,63.25,-19.5,13.0,69.25,3
587.0,-40.75,215.75,-24.25,67.5,-10.5,9.25,95.0,3
661.75,-20.25,-129.25,-25.25,43.0,3.5,32.0,101.5,3
547.5,-7.5,-444.75,-40.25,36.75,69.5,50.75,26.75,3
508.25,10.5,-675.5,-46.5,37.0,99.0,52.5,14.75,3
555.75,34.75,-893.5,-39.25,34.5,105.75,60.25,43.25,3
518.25,43.5,-781.5,-34.0,49.5,124.0,67.0,-36.0,3
375.75,45.0,-320.5,-27.5,53.5,123.0,80.0,-72.25,3
99.25,65.25,67.25,-5.5,49.5,101.5,67.5,-48.25,3
-136.75,81.0,537.0,-1.0,30.0,80.75,44.25,-21.75,3
-284.75,86.5,786.5,-7.0,22.75,57.75,55.0,11.75,3
-378.0,85.25,791.0,-29.0,28.0,-30.25,56.5,47.5,3
-322.0,62.0,628.75,-36.25,17.75,32.5,45.25,46.75,3
-262.75,40.25,410.25,-18.25,27.25,128.0,50.5,33.75,3
-230.25,31.5,286.75,-14.75,32.5,70.75,47.0,21.0,3
-251.75,17.75,123.25,-12.75,22.0,130.25,28.25,11.75,3
-310.5,-9.0,25.0,12.0,24.0,180.75,32.5,32.25,3
-286.5,-26.0,-39.75,61.0,37.5,167.5,37.75,77.75,3
-226.5,-29.75,-108.0,76.25,58.25,142.25,40.5,117.25,3
-120.5,-22.0,-150.0,92.25,55.75,56.5,26.75,117.0,3
-28.75,-17.75,-104.25,78.0,52.0,-43.25,24.75,110.5,3
60.75,-9.5,14.25,45.0,58.75,-121.0,35.0,93.0,3
86.0,-8.25,91.25,31.25,58.25,-115.25,22.75,54.25,3
15.75,4.75,107.75,0.25,72.0,-160.5,28.75,-7.75,3
-129.75,39.75,38.75,-13.5,108.75,-177.75,33.5,-96.5,3
-265.5,34.75,-70.25,-39.75,132.75,-58.25,35.5,-112.75,3
-358.75,20.75,-166.25,-31.25,131.5,-0.25,29.5,-48.75,3
-370.5,0.0,-233.5,-28.5,137.0,-0.75,26.25,-7.5,3
-187.25,-10.0,-312.75,-31.75,123.5,21.25,31.5,30.0,3
51.75,-36.0,-381.75,-19.75,129.75,17.5,23.75,15.0,3
290.25,-81.5,-448.0,-34.5,139.5,-18.25,23.0,-52.5,3
372.0,-83.0,-446.75,-35.75,135.25,-0.75,23.5,-85.25,3
24.25,-81.25,-462.0,-28.25,126.25,73.0,21.25,-85.75,3
-158.5,-57.25,-427.5,-21.0,103.25,104.5,23.0,-119.5,3
26.5,-38.0,-154.0,-39.5,131.75,114.5,23.0,-98.5,3
51.75,-28.25,-10.0,-36.25,150.75,97.75,22.25,44.5,3
111.75,-4.5,79.25,-21.5,138.5,32.25,34.25,44.5,3
111.75,2.75,266.5,-37.25,135.75,-23.25,29.5,21.75,3
56.0,29.75,441.0,-41.25,104.5,-15.5,18.0,58.0,3
-9.25,32.25,498.75,-38.75,84.75,-32.25,31.25,79.25,3
-116.0,26.0,503.5,-45.5,36.5,-28.5,25.75,99.75,3
-95.5,40.0,424.5,-31.25,14.0,37.25,28.0,82.75,3
-75.75,39.5,174.75,-27.75,20.75,32.25,33.0,119.25,3
-57.75,36.0,-121.25,-30.5,2.5,35.5,23.5,72.0,3
-64.0,35.0,-283.25,-22.75,-17.5,8.5,26.25,-12.0,3
-11.25,42.25,-120.75,-8.5,-20.75,-18.0,23.5,43.5,3
73.0,27.75,-31.5,15.25,15.75,-6.0,30.25,-2.25,3
99.25,2.5,-58.5,32.0,24.5,-25.5,22.5,-179.5,3
123.75,-11.25,-146.5,47.75,-6.5,8.75,24.0,-105.75,3
101.0,-7.0,-190.5,21.25,-17.75,-8.75,17.75,43.25,3
77.0,-3.75,-165.25,13.75,-29.25,-24.25,1.5,20.0,3
-15.25,-3.0,-228.5,1.0,-58.0,-11.0,21.25,-9.5,3
-127.25,6.25,-219.0,-31.75,-88.75,-35.5,13.75,-46.5,3
-118.25,-7.0,-88.0,-33.0,-120.25,-2.0,8.5,-50.0,3
-155.75,-0.75,105.25,-46.0,-113.5,9.25,9.75,14.25,3
-157.25,-1.0,238.25,-49.5,-93.0,18.75,5.0,47.75,3
-98.25,-37.5,328.5,-41.0,-73.75,26.5,8.75,33.25,3
-95.25,-61.5,331.75,-33.0,-81.0,17.5,7.25,37.75,3
-67.0,-32.5,328.0,-25.25,-118.0,-7.5,5.25,33.0,3
-170.25,-6.75,165.0,-14.75,-132.75,-17.25,-1.75,21.0,3
-320.25,0.0,-55.5,-21.5,-132.25,-13.5,-5.75,12.0,3
-432.5,25.5,-117.75,-21.75,-116.75,-29.75,-7.75,-8.5,3
-590.5,30.25,-49.5,-29.5,-124.5,-30.5,-6.25,-6.5,3
-644.5,16.75,61.25,-28.25,-117.25,-59.5,-5.5,12.0,3
-579.0,17.25,14.5,-8.0,-114.25,-92.25,2.75,22.5,3
-313.0,22.75,-50.0,-12.5,-113.0,-80.75,4.5,15.0,3
62.75,24.5,-125.25,-12.25,-109.25,-26.0,-2.0,25.25,3
458.0,20.25,-200.25,-3.25,-100.25,13.25,16.0,39.25,3
814.75,-11.0,-268.75,-5.0,-89.25,6.5,30.25,43.75,3
801.5,2.75,-327.25,-20.0,-95.25,19.5,28.5,32.0,3
750.75,32.5,-344.75,-25.5,-95.75,20.0,15.25,43.75,3
583.0,39.0,-392.5,-22.0,-94.75,22.75,18.5,50.75,3
216.0,21.25,-284.5,-30.25,-83.25,32.75,25.25,13.0,3
161.5,-3.5,-19.0,-37.75,-64.0,59.25,18.25,35.5,3
156.25,-4.25,164.25,-33.75,-57.0,110.0,20.0,113.25,3
112.5,-23.5,285.0,-25.0,-64.5,176.5,25.5,106.25,3
56.25,-26.5,287.25,-15.75,-55.0,145.5,17.5,46.75,3
-129.25,-24.75,291.0,-10.75,-28.75,26.0,34.5,88.25,3
-435.75,-13.75,183.25,11.25,-14.25,-19.25,39.75,109.25,3
-717.25,2.5,45.5,14.75,-12.5,-71.0,35.25,-11.0,3
-717.75,-12.0,298.25,11.5,-5.0,-99.5,45.75,-128.75,3
-652.75,-16.25,474.0,22.0,-4.25,-89.25,31.25,-132.25,3
-570.25,-25.5,440.0,17.25,0.5,-88.5,13.25,-99.0,3
-404.0,-40.75,311.75,22.75,-12.0,-79.25,21.0,-87.0,3
-306.5,-63.5,107.5,28.5,-1.25,-14.0,25.5,-53.5,3
-225.0,-86.75,-239.5,34.75,13.5,108.25,19.75,-17.0,3
-52.75,-90.75,-321.25,27.0,5.75,196.25,18.0,-8.25,3
252.25,-55.75,-215.5,-2.75,3.5,229.75,22.0,15.5,3
696.75,18.25,-242.25,-25.25,19.25,261.0,28.25,16.0,3
874.25,62.25,-107.25,-34.75,42.25,240.25,22.0,7.5,3
762.5,82.25,4.5,-37.75,56.5,122.0,23.5,21.0,3
833.0,84.25,117.25,-45.0,66.0,14.5,23.5,14.5,3
738.25,94.0,202.0,-44.75,46.75,-75.25,8.75,15.0,3
314.0,94.5,169.25,-40.0,50.5,-112.75,19.75,17.0,3
7.0,67.5,130.25,-27.5,58.0,-192.0,21.75,5.5,3
182.75,58.25,70.5,-22.75,26.5,-315.75,23.25,31.0,3
181.5,19.5,-6.75,-21.25,-3.25,-384.0,20.25,53.5,3
-118.0,-12.0,-136.0,-18.5,42.25,-302.5,12.0,65.5,3
-265.75,-25.0,-311.5,-25.0,94.5,-49.25,18.25,77.0,3
-360.5,-26.0,-367.25,-19.0,116.25,65.75,19.75,53.0,3
-367.0,8.5,-405.0,-17.0,110.0,79.0,25.0,55.0,3
-319.5,10.75,-425.75,-28.25,105.0,96.75,8.75,22.5,3
-282.75,8.5,-372.0,-31.75,122.25,112.0,6.5,-46.5,3
-194.75,18.75,-397.75,-25.25,92.75,137.0,6.5,10.25,3
-141.25,-0.25,-272.5,-14.25,107.25,142.0,8.25,68.25,3
-190.75,-20.5,-34.5,-37.5,125.75,170.75,15.0,29.5,3
-240.75,-36.25,-6.25,-64.25,104.0,188.5,-0.25,-101.5,3
-237.75,-38.25,49.25,-72.25,72.25,188.25,6.5,-176.5,3
-213.0,-21.75,44.75,-61.25,59.0,176.75,17.0,-120.5,3
-289.5,-32.5,-6.25,-53.25,94.0,180.75,20.25,-117.25,3
-319.0,-21.25,103.5,-35.0,110.25,159.25,28.5,-9.0,3
-299.25,-18.75,201.0,-6.0,129.5,71.75,38.5,72.5,3
-367.75,-29.25,239.5,-18.25,142.75,-51.75,25.75,82.0,3
-420.0,-17.0,231.5,-8.5,132.75,-51.0,27.5,102.0,3
-492.25,-3.75,188.25,6.25,116.25,44.75,19.75,58.5,3
-528.25,6.25,88.25,-7.75,93.0,69.5,4.0,67.5,3
-464.0,-10.0,89.75,3.5,70.25,34.25,24.5,-8.0,3
-330.75,-20.75,160.0,13.0,86.25,27.75,25.0,-57.75,3
-55.25,-17.5,127.0,14.25,106.75,100.5,22.25,43.5,3
274.25,-3.25,125.75,27.75,107.0,103.5,20.25,55.25,3
483.75,-8.0,25.25,20.0,85.75,61.0,20.5,48.0,3
416.0,-28.5,-113.75,-13.5,65.75,27.75,16.5,48.0,3
244.75,-33.0,-3.0,-36.0,69.75,77.75,26.75,6.75,3
347.75,-7.25,157.25,-35.5,84.75,113.75,35.0,-6.5,3
501.25,-4.5,171.25,-16.5,91.0,108.5,28.0,-36.25,3
699.75,9.5,117.5,-20.5,75.0,86.5,30.25,-39.75,3
780.0,34.5,53.5,-41.25,70.5,28.5,25.5,-9.0,3
352.25,21.0,-7.5,-51.25,63.0,12.0,30.0,5.75,3
57.5,23.25,-17.5,-47.0,54.25,-1.75,34.25,3.25,3
-88.75,-11.25,-23.75,-46.25,55.0,-29.0,18.0,19.75,3
-374.75,-27.5,-56.25,-51.5,23.0,-55.75,16.75,32.25,3
-367.25,-13.25,-34.75,-47.5,-9.0,-102.0,17.5,32.25,3
-203.75,-6.5,-56.25,-38.0,28.25,-177.25,15.0,25.5,3
-114.5,3.5,-109.0,-33.5,59.75,-177.5,9.25,34.5,3
-0.75,22.5,-121.5,-32.25,68.25,-125.25,12.5,56.5,3
96.75,17.5,-186.25,-19.75,63.0,-14.75,20.5,13.5,3
180.5,-1.0,-301.75,-19.5,20.5,46.5,24.0,-2.5,3
176.75,-38.75,-354.0,-35.25,17.5,53.25,27.75,-8.25,3
54.75,-96.5,-318.75,-16.5,23.75,99.5,25.5,-22.25,3
-45.0,-70.0,-194.75,-10.25,18.25,163.25,32.25,-10.5,3
-59.5,-10.0,-35.25,-21.25,18.0,213.25,20.25,19.75,3
-91.75,11.5,92.0,-14.5,32.5,204.75,35.0,62.0,3
-288.5,32.0,157.5,-3.0,57.0,186.5,33.75,40.5,3
-380.75,48.0,128.25,2.25,40.25,112.5,8.5,5.5,3
-279.75,69.75,-53.25,7.5,36.0,41.75,24.75,21.25,3
-189.75,71.0,-366.0,5.5,40.75,29.5,21.0,64.5,3
-147.25,39.5,-478.5,2.0,50.75,-11.25,13.0,82.0,3
-163.0,34.5,-202.5,3.5,60.5,-63.25,16.5,98.0,3
-73.0,12.25,187.5,5.75,70.75,-82.5,15.25,87.0,3
66.75,-38.25,480.25,2.5,55.0,-98.75,16.75,59.75,3
66.5,-97.0,707.75,8.5,25.5,-54.25,20.75,70.0,3
61.75,-129.25,694.25,-5.25,40.5,-12.5,17.5,52.5,3
55.25,-106.5,470.75,-19.0,47.5,-25.75,17.75,44.25,3
-11.0,-104.75,215.0,-15.5,54.25,-17.25,15.0,-2.25,3
-126.5,-95.0,-39.5,-27.0,35.0,12.75,14.25,-52.5,3
-52.5,-33.0,-214.5,-30.75,23.75,5.75,14.5,-31.0,3
-16.75,33.0,-180.25,-50.0,16.5,-6.25,22.0,-12.5,3
-39.0,85.5,-84.75,-74.0,4.0,25.25,33.0,-32.0,3
48.75,132.75,-128.75,-46.5,2.5,114.25,21.25,-35.25,3
63.25,126.0,-208.0,-36.25,-37.5,218.75,20.5,-37.75,3
129.75,72.75,-196.0,-38.25,-54.0,187.75,28.25,25.0,3
165.75,41.75,-83.75,-31.75,-56.5,132.25,24.0,93.0,3
158.25,22.5,-32.0,-30.5,-66.75,48.5,38.25,84.0,3
46.0,22.5,-17.25,-21.0,-44.0,-45.25,41.25,87.5,3
-37.0,28.25,-70.75,-11.25,-14.75,-124.25,29.0,38.5,3
-89.5,32.25,-127.5,-10.5,-34.75,-173.25,39.25,20.0,3
-159.25,40.5,-144.25,-10.5,-53.5,-130.5,31.75,-5.0,3
-208.0,43.25,-204.75,-3.0,-62.75,-101.25,25.75,-51.0,3
-200.25,34.25,-209.75,14.75,-79.75,-48.25,19.5,-57.25,3
6.75,22.0,-244.25,29.25,-83.5,21.25,24.25,-57.0,3
207.0,25.25,-141.5,21.25,-84.5,80.0,24.25,-38.0,3
315.0,-27.25,37.5,7.5,-58.25,81.75,18.75,11.25,3
231.0,-75.5,59.0,14.25,-20.25,90.75,9.75,127.25,3
93.0,-62.25,80.25,22.75,-18.5,95.0,12.5,196.25,3
60.25,-38.25,78.75,44.0,-18.25,71.5,27.5,222.5,3
-110.0,-40.75,99.75,30.0,-25.25,49.25,2.5,180.75,3
-155.75,-35.0,65.0,23.5,-41.75,5.75,6.75,56.5,3
-60.0,-13.25,-22.0,21.0,-38.75,1.75,13.5,-12.5,3
-101.0,11.25,-9.25,-20.0,-56.75,0.0,0.0,-67.75,3
-172.75,37.5,44.75,-25.75,-64.25,81.0,5.75,-174.0,3
-122.25,54.75,69.25,-35.0,-80.0,158.0,3.75,-110.5,3
-26.0,79.0,85.0,-53.75,-85.75,196.5,6.0,9.75,3
21.5,45.25,117.75,-51.5,-85.25,225.5,7.25,42.75,3
-179.75,9.5,141.0,-47.75,-77.5,213.0,9.25,46.75,3
-420.0,6.5,99.25,-45.25,-91.25,169.5,9.75,-16.5,3
-337.0,18.5,-2.0,-50.25,-118.75,109.25,-1.25,-4.0,3
-247.5,16.25,11.5,-43.0,-122.25,8.5,-7.25,12.75,3
-262.25,10.0,140.5,-42.0,-148.75,-87.0,1.25,-42.25,3
-278.5,-1.75,176.75,-33.75,-142.0,-188.25,-7.25,-88.75,3
-350.0,-12.0,161.0,-28.0,-121.25,-376.5,-14.5,-112.75,3
-380.25,-8.25,156.0,-10.5,-106.0,-436.5,-12.5,-96.0,3
-391.0,-28.0,178.5,13.75,-111.25,-286.75,-10.0,24.5,3
-386.0,-28.75,182.0,-6.25,-118.25,-12.25,-3.75,31.0,3
-138.75,-10.0,-4.0,-13.25,-103.5,69.75,-7.75,7.75,3
314.25,9.75,-154.75,-34.75,-107.75,55.5,-4.0,56.5,3
475.75,4.0,-211.5,-39.75,-79.0,111.5,4.25,31.25,3
578.0,15.0,-260.25,-13.0,-46.25,77.5,2.75,34.25,3
976.0,10.25,-237.25,1.0,-36.5,87.5,2.75,-8.75,3
1005.5,2.5,-89.25,-5.5,-41.5,22.25,12.25,-29.75,3
1015.25,37.75,35.5,-14.25,-32.5,22.5,2.75,-8.5,3
809.75,29.5,15.25,-9.25,-16.25,98.75,16.5,14.5,3
595.0,4.0,-89.5,-7.0,-22.0,110.0,23.25,31.75,3
284.25,-6.75,-187.5,-11.5,-23.75,124.25,20.0,41.75,3
71.75,4.5,-164.0,-15.0,-35.5,109.0,22.25,58.0,3
-56.0,4.75,-107.5,-10.0,-22.5,93.75,22.5,45.5,3
-127.0,1.75,-26.5,-21.0,21.5,84.5,30.25,49.5,3
-128.75,9.25,69.25,-24.25,78.25,113.25,36.25,39.5,3
-206.25,10.25,98.75,-19.75,118.0,95.0,49.0,31.5,3
-233.0,18.25,13.5,-9.25,112.5,2.5,46.0,20.25,3
-250.25,15.5,-89.75,-6.25,86.25,-44.25,39.0,52.25,3
-259.0,6.5,-72.0,-2.5,55.75,-37.75,39.0,88.0,3
-303.0,-9.75,-24.75,-3.25,45.5,25.75,52.75,83.0,3
-283.75,-22.25,8.0,-21.0,56.5,147.25,38.75,81.5,3
-273.5,-50.0,-40.75,-23.25,54.75,162.0,30.25,66.0,3
-363.25,-60.25,-5.5,-35.5,28.5,96.5,42.0,17.75,3
-461.25,-54.0,91.5,-42.5,18.0,37.0,32.5,8.25,3
-517.5,-64.25,118.5,-40.5,46.25,-24.5,31.0,12.75,3
-502.75,-49.5,121.0,-28.25,94.75,-51.0,33.25,-19.5,3
-393.0,-38.5,-5.25,-31.5,140.75,-80.0,27.0,-30.5,3
-290.5,-13.5,-189.0,-54.75,181.5,-112.25,23.0,15.0,3
-426.5,-2.75,-301.25,-40.75,185.25,-105.0,33.0,106.75,3
-372.75,-4.25,-312.75,-38.75,154.25,-30.25,21.5,131.0,3
-85.0,-0.5,-372.0,-46.0,129.25,6.75,28.0,78.25,3
-12.0,-21.5,-332.75,-30.5,139.5,9.25,36.75,42.5,3
101.5,-23.5,-177.5,-27.75,156.5,34.0,22.75,-13.0,3
6.75,-42.25,-48.0,-32.5,175.5,82.0,31.75,-108.25,3
-108.25,-58.75,146.75,-33.5,209.5,93.25,31.25,-239.0,3
57.5,-30.75,290.5,-44.0,186.0,38.75,30.75,-223.75,3
189.25,-15.0,343.5,-43.25,161.75,33.5,16.75,-69.75,3
372.0,10.75,323.25,-19.25,155.75,37.5,20.5,-10.0,3
601.25,16.75,199.0,-9.75,119.75,26.0,24.75,-6.25,3
694.25,0.75,143.0,-4.75,108.75,-11.75,24.25,12.5,3
615.0,-5.0,256.75,-3.5,72.75,-65.25,20.0,74.75,3
437.0,14.0,269.75,3.5,38.5,-72.75,20.75,121.5,3
62.25,48.25,207.0,6.75,76.0,-7.5,16.0,103.25,3
-238.5,45.75,185.0,10.0,89.0,54.5,23.0,125.25,3
-381.75,63.5,118.25,20.5,108.5,72.25,33.5,108.25,3
-481.5,69.75,-82.5,23.0,111.5,84.5,25.5,40.5,3
-395.75,72.5,-329.25,21.25,98.0,52.75,39.25,-9.25,3
-208.25,62.25,-344.75,17.5,112.25,-2.5,37.0,-72.75,3
-367.5,10.5,-169.75,20.0,96.0,-105.25,28.5,-109.0,3
-776.0,16.75,-115.25,15.0,83.25,-124.75,29.0,-27.0,3
-680.75,12.75,-165.5,9.0,51.5,-91.75,20.0,8.0,3
-429.25,10.25,-216.25,1.75,50.75,-67.25,12.5,-7.25,3
-206.25,11.0,-153.75,-16.75,50.75,39.75,27.5,1.75,3
72.75,-16.25,-148.5,-26.25,30.75,33.0,23.5,26.25,3
225.0,-11.5,-148.0,-45.25,8.75,-1.25,12.5,84.5,3
263.75,-16.25,-8.75,-56.25,-23.25,7.25,26.5,100.0,3
126.0,-23.5,77.25,-39.5,4.5,6.75,32.0,138.25,3
253.25,-15.0,135.25,-10.75,7.0,38.0,28.75,164.0,3
504.0,2.0,165.5,20.25,-18.0,42.5,18.75,111.0,3
641.5,20.0,232.0,19.5,-27.5,53.25,10.5,16.5,3
738.75,28.25,338.75,3.0,-19.5,87.0,9.5,1.25,3
487.0,41.75,355.75,18.75,-2.5,41.0,23.25,6.25,3
109.75,38.75,283.0,24.5,-13.5,-39.0,47.25,-111.5,3
-101.75,40.0,31.75,23.5,-42.25,-29.0,46.75,-227.25,3
-259.0,63.25,-236.0,6.5,-75.75,-21.0,57.5,-126.0,3
-364.25,62.5,-287.25,-8.75,-90.5,-97.25,58.25,27.5,3
-243.5,40.75,-326.5,-18.5,-84.75,-81.25,49.0,55.25,3
-57.5,15.25,-141.5,-42.75,-83.25,-1.5,54.5,34.5,3
-56.75,11.0,193.0,-25.25,-122.5,37.5,47.5,11.25,3
-290.0,12.25,299.0,-20.0,-176.5,131.5,54.25,-16.75,3
-445.0,36.75,352.0,-1.75,-160.0,73.0,49.5,-28.75,3
-405.25,31.75,322.25,33.75,-124.0,-14.5,31.5,-2.75,3
-266.75,5.5,226.5,39.0,-94.5,-77.75,32.5,-31.25,3
-207.5,24.0,98.5,35.25,-80.25,-115.25,38.5,-30.5,3
-11.5,19.5,-71.75,12.0,-77.75,-67.5,34.75,-47.25,3
455.0,12.5,-234.75,3.25,-42.0,-88.25,42.75,-54.25,3
838.5,1.25,-307.5,6.0,-31.5,-39.25,49.5,-88.75,3
773.5,-0.75,-229.25,-14.0,-9.0,-82.0,34.5,-132.75,3
463.0,12.75,-177.25,-13.25,6.5,-79.75,38.75,12.5,3
379.25,12.0,-125.75,-6.0,-18.0,2.25,48.75,43.0,3
210.25,29.0,-20.25,1.25,4.25,-25.25,49.0,-9.25,3
-21.25,50.0,63.25,-3.5,35.0,-82.5,31.25,-24.0,3
