0,1,2,3,4,5,6,7,label
579.75,-165.5,675.75,-9.25,1494.0,1012.75,2400.75,-1712.25,4
346.25,-322.75,-200.75,-243.25,-114.0,845.25,2386.75,-1694.75,4
453.5,-451.25,-195.0,-287.75,-1117.25,673.5,2068.75,-1776.0,4
6.0,-861.75,-59.0,-314.0,-460.0,616.5,1635.75,-1835.0,4
-771.75,-1301.75,-508.75,-161.0,51.5,500.25,1057.0,-1941.5,4
-1045.5,-1104.25,-685.25,76.25,304.75,279.75,1140.25,-1975.25,4
-885.25,-542.5,-793.0,451.0,319.0,74.5,1101.0,-1960.75,4
-697.75,-341.25,-604.75,658.0,-697.75,-150.25,495.0,-1855.25,4
-640.25,-279.5,-658.5,762.75,-996.0,-278.0,1131.0,-1569.75,4
-721.0,-326.0,-498.5,784.25,-953.0,-149.25,1728.75,-1276.5,4
-787.25,-414.0,-166.75,646.0,-922.5,-37.75,1603.25,-1218.0,4
1254.75,-377.75,136.25,674.25,-906.25,-90.25,1287.25,-1211.0,4
1308.25,-388.5,371.5,764.25,-244.5,-119.25,1028.0,-1148.75,4
1341.5,-501.5,-208.75,479.25,1182.5,-277.0,614.5,-1062.0,4
1397.75,-380.5,-926.5,64.0,1873.75,-459.25,-15.5,-1040.75,4
1470.0,67.25,-994.0,-294.25,1723.0,-463.5,289.5,-1066.25,4
1244.75,295.5,-237.5,-530.0,1103.25,-426.75,754.75,-749.5,4
1596.75,269.75,-3.5,-712.75,1093.25,-647.75,821.5,-431.5,4
1468.0,224.25,308.25,-781.5,399.25,-948.75,31.25,55.75,4
1284.0,365.25,333.75,-493.0,53.5,-1151.5,-740.25,232.5,4
457.5,367.0,431.25,-275.75,1053.75,-1204.25,-1339.5,283.75,4
-985.5,107.5,572.75,-140.0,1040.5,-1094.25,-1507.0,235.0,4
208.25,280.0,462.5,129.25,1024.5,-903.5,-1459.25,143.25,4
850.5,512.75,224.25,428.5,1617.0,-694.0,-1025.5,51.0,4
1415.75,455.75,58.5,644.75,2142.75,-615.25,-1027.25,-1.5,4
1280.75,310.75,-18.5,592.25,2538.5,-509.5,-1031.25,181.25,4
710.5,12.75,-130.5,353.25,1942.25,-338.25,-1183.75,67.0,4
565.75,17.25,-182.25,166.0,946.75,-111.25,-808.0,-127.25,4
-320.5,-122.5,-172.5,11.75,931.5,196.0,-1159.5,-69.75,4
-304.5,-70.75,-89.0,49.5,690.25,558.25,-1421.0,-82.25,4
-616.0,299.5,-67.25,150.5,35.25,1007.5,-1487.75,-152.25,4
-461.5,318.0,-95.75,301.75,-292.5,1363.5,-1299.75,-236.5,4
-798.0,321.5,65.0,298.75,-411.75,1687.0,-851.0,-732.25,4
-852.5,106.5,56.25,-104.25,-683.0,1872.0,-724.0,-1470.75,4
-681.75,-54.5,184.25,-582.5,-383.0,1667.5,657.0,-1926.75,4
-542.75,9.25,-2.0,-812.5,-7.5,1386.5,1244.5,-2034.0,4
-159.5,-75.75,-104.0,-730.0,276.5,1105.5,1062.25,-1972.5,4
-725.25,-123.5,32.75,-501.0,558.25,824.25,630.25,-1935.75,4
-1213.5,23.5,400.75,-77.25,877.5,549.75,493.25,-2006.0,4
-1439.75,-48.0,805.0,300.25,849.5,183.75,687.25,-2090.5,4
-1288.5,-233.75,327.25,546.25,830.0,-336.5,6.5,-1927.75,4
-1006.25,-186.25,-218.75,706.25,778.5,-870.5,-16.0,-1833.75,4
-690.0,-51.75,-279.25,666.0,-27.25,-948.75,-30.5,-1391.5,4
-526.75,-100.75,-421.5,322.5,-685.5,-982.25,28.75,-787.5,4
-374.0,-100.75,-317.75,-54.0,-505.75,-1071.0,142.75,-79.75,4
-280.25,2.5,177.75,-161.75,584.25,-1152.5,129.25,655.75,4
-315.75,-77.5,-40.75,-142.25,434.0,-809.75,603.75,1244.5,4
-66.5,6.0,-568.25,-132.25,-940.25,-485.0,1552.75,1762.5,4
316.0,-178.0,-779.25,-34.5,-752.75,-343.5,1986.0,1686.25,4
501.5,-261.75,-461.0,121.0,-547.0,-82.5,1518.25,1515.75,4
314.5,-176.25,91.5,58.75,-1121.25,143.25,545.75,1527.25,4
231.25,-176.0,378.75,-8.75,-1106.0,259.5,-508.0,1498.25,4
82.75,33.0,420.5,120.0,-1098.0,249.5,-2842.75,1410.0,4
54.0,438.25,125.75,303.5,-1403.5,178.0,-2091.25,1547.0,4
350.0,1101.5,365.0,494.75,-1371.75,122.0,-1249.0,1443.75,4
809.25,1055.0,656.0,533.75,-182.75,77.25,-1453.5,1375.0,4
1046.5,370.25,562.0,816.5,32.75,-33.25,-1732.75,1348.25,4
990.75,-413.5,172.75,1008.75,-108.0,-51.75,-418.75,1356.25,4
497.25,-852.75,-126.25,782.5,61.75,51.75,795.0,1446.0,4
-832.0,-481.75,-75.75,389.0,535.0,62.25,392.25,1565.0,4
-812.25,-504.0,-84.75,-318.25,1919.75,209.75,1000.5,1733.0,4
-925.5,-641.75,-232.0,-980.25,2783.0,405.0,1799.75,1854.5,4
-973.5,-377.75,-420.0,-1177.0,2934.0,291.5,2121.0,1867.0,4
-707.75,-138.0,-274.5,-1300.5,2900.25,290.0,2333.75,1926.0,4
-604.25,79.5,-210.25,-1296.25,2640.5,355.5,2757.5,1997.5,4
-412.75,296.0,-172.0,-1223.75,2459.25,446.0,2435.25,1973.5,4
97.25,600.0,61.25,-737.75,2401.5,145.25,2246.5,2000.75,4
451.0,606.5,81.5,-592.0,2227.75,-677.25,1961.75,1979.75,4
520.75,374.25,24.0,-515.75,2185.5,-1077.0,1933.25,1986.25,4
436.25,313.0,33.5,-88.0,1996.25,-1101.25,1983.0,1990.0,4
348.0,225.75,-12.0,-13.75,1926.0,-1180.5,1979.5,2119.0,4
472.5,105.25,194.5,-50.0,1889.0,-1104.5,1984.75,2305.0,4
468.25,175.0,756.0,44.5,1851.5,-1040.5,1856.5,2433.75,4
331.0,257.75,968.25,67.0,1856.75,-1251.5,1670.0,2661.75,4
68.75,397.25,1014.5,37.0,1853.5,-1540.5,1876.0,2768.5,4
-118.25,217.5,675.25,90.75,1879.75,-1498.5,1599.75,2626.75,4
-327.75,-267.75,-361.75,356.5,1313.0,-890.5,847.0,2387.75,4
-95.75,-421.5,-562.75,534.5,618.75,-611.0,-287.0,2078.5,4
45.25,-266.0,-275.5,450.5,-303.25,-506.5,-1.0,1640.75,4
-233.5,-53.25,-127.0,435.5,-707.75,-407.25,-388.5,1321.5,4
-117.75,76.75,-205.0,360.25,-932.75,-375.25,-952.75,1045.75,4
-77.5,214.75,-57.0,219.75,-904.5,-310.0,517.25,502.0,4
-36.25,295.25,3.25,170.5,-858.25,-237.5,1287.5,8.25,4
-5.0,437.75,-352.25,131.25,126.75,-0.5,1018.25,-395.75,4
-170.0,567.0,-148.5,-4.5,833.5,254.25,963.75,-806.25,4
-193.5,474.25,-24.25,-71.75,1022.75,410.75,193.25,-1358.25,4
-52.5,-83.75,-161.25,81.75,1018.75,533.5,-325.75,-1682.0,4
59.0,-793.5,-615.75,273.75,802.0,729.0,-124.0,-1794.0,4
-271.5,-1238.75,-692.0,624.5,644.5,1120.0,512.0,-1958.5,4
-753.5,-1348.75,-259.75,1004.5,572.0,1429.75,736.75,-2597.0,4
-639.0,-1050.25,240.0,1009.75,543.0,1527.5,797.25,-2972.25,4
-147.5,-432.25,504.0,721.25,490.75,1580.75,530.75,-2708.0,4
-55.25,-454.0,259.0,352.25,397.0,1446.5,-13.75,-2504.75,4
-19.75,-574.75,171.0,73.75,195.5,1146.25,-384.0,-2603.0,4
29.5,-261.5,177.25,-186.0,3.75,956.25,-644.25,-2144.75,4
-20.5,-186.0,342.5,-226.25,-106.75,887.75,-794.0,-1992.5,4
126.5,118.25,321.75,-223.5,-208.75,914.25,-764.75,-1781.75,4
178.75,311.0,39.25,-200.75,-299.5,905.25,-1118.25,-1620.75,4
429.25,352.25,-159.25,-175.5,-736.5,794.25,-848.75,-1158.5,4
729.25,205.5,-389.25,-282.25,-1564.5,765.5,-226.25,-884.75,4
416.5,82.25,-281.0,-483.75,-1957.5,555.0,-442.25,-587.5,4
-126.0,8.0,-75.5,-379.0,-1602.5,95.25,-1278.25,-422.0,4
-420.5,-91.25,38.5,-220.5,-1385.75,-132.25,-1444.75,-491.0,4
-673.75,-92.0,23.5,-166.5,-945.25,-205.0,-1070.25,-311.0,4
-531.75,-8.0,43.0,-199.5,-439.5,-225.75,-919.25,-336.0,4
-286.25,296.25,391.0,-44.25,-424.5,150.0,-1764.5,-618.0,4
-108.5,504.0,816.75,182.75,-399.25,858.75,-2496.75,-811.25,4
93.75,752.25,544.5,155.25,-389.75,1106.75,-2793.0,-681.75,4
122.5,849.25,-248.75,-84.0,-695.75,1210.5,-2815.0,-529.25,4
227.75,1034.25,-596.5,-170.25,-1108.0,1203.75,-2772.25,-470.25,4
263.75,1098.0,-678.75,-88.75,-772.0,1126.0,-2735.5,-322.75,4
268.5,1000.0,-338.0,-102.75,-665.5,968.75,-2667.0,-185.75,4
203.75,860.75,-35.75,-113.0,-870.0,643.25,-2650.5,-65.5,4
117.5,755.75,27.5,-265.5,-1075.75,264.0,-2255.25,-144.75,4
74.0,800.25,358.0,-425.5,-1121.0,40.5,-1495.0,-324.5,4
31.25,727.75,129.75,-460.5,-626.5,-160.25,-1226.5,-298.25,4
-0.25,490.0,-291.25,-368.75,-171.0,-496.25,-978.0,-406.75,4
-40.0,-288.75,-471.75,-336.75,269.25,-602.75,-1050.5,-684.25,4
-70.75,-786.25,-698.25,-359.75,629.25,-417.75,-1009.25,-1022.25,4
-54.25,-1025.5,-623.5,-280.5,374.0,-251.5,-709.0,-1154.5,4
10.25,-1242.0,-498.75,-271.0,135.0,-131.5,-211.5,-741.75,4
14.5,-1170.0,-392.75,-269.0,676.5,20.25,329.5,794.5,4
39.75,-1073.5,-228.0,-435.0,1085.25,31.5,599.75,621.75,4
20.5,-954.75,-114.5,-603.5,1110.0,16.75,788.25,423.75,4
-20.5,-18.25,-56.5,-520.5,1232.0,-160.75,941.5,351.75,4
-34.25,1005.25,56.75,-326.0,1332.25,-406.5,1143.25,148.25,4
-35.75,1005.5,95.5,-200.25,1218.75,-401.25,1396.5,-83.5,4
-3.0,1124.5,50.75,58.75,1019.0,-426.0,1396.25,-712.5,4
30.75,957.5,22.75,207.5,851.0,-309.25,396.75,-1825.25,4
46.75,-1005.75,-5.0,54.5,501.25,-224.75,-738.75,-2132.25,4
45.5,-928.25,64.5,54.75,271.0,-358.75,-567.5,-2166.25,4
31.5,-940.0,105.5,44.75,502.25,-264.75,-642.25,-2079.25,4
-25.25,-1006.25,127.0,32.25,847.25,209.0,-806.5,-1910.5,4
-54.5,-971.25,107.0,78.0,1033.25,416.0,-1133.5,-1879.0,4
-37.0,-855.25,82.5,29.25,1192.25,-40.75,-1534.75,-2070.75,4
43.25,88.5,80.75,53.5,1313.5,-497.75,-1238.5,-1823.75,4
135.75,467.25,70.75,143.25,1762.0,-915.0,-1297.0,-1459.25,4
185.75,795.75,77.5,303.5,1387.5,-799.25,-901.25,-968.5,4
178.5,526.75,66.75,420.5,257.5,-765.25,-806.5,-632.75,4
143.25,412.25,90.5,415.25,113.5,-940.0,-836.0,-496.0,4
101.75,525.0,100.25,481.0,80.5,-856.75,-632.0,-280.75,4
56.5,141.5,121.25,455.75,63.75,-899.0,-1412.75,-167.0,4
102.25,261.25,149.5,334.5,65.75,-855.75,-1977.0,-37.5,4
134.5,430.75,153.0,349.25,58.25,-746.0,-1546.0,239.0,4
82.0,641.0,157.0,190.25,70.75,-505.0,-799.75,634.5,4
2.25,357.25,142.5,76.25,65.25,-258.0,-733.5,946.5,4
8.75,269.75,132.5,91.0,64.75,2.0,-808.75,1456.25,4
47.25,295.0,128.5,-27.0,23.75,307.75,-813.75,1927.5,4
23.75,268.25,92.5,-54.5,-57.75,690.75,-934.5,2150.0,4
7.5,414.0,43.5,106.0,-126.25,1097.0,-750.5,1878.25,4
4.0,243.5,-8.25,539.75,-194.25,1463.25,-1042.25,1576.75,4
0.0,341.75,-53.5,897.25,-220.0,1671.75,-1344.5,1851.75,4
-22.0,371.5,-57.25,1005.25,-221.0,1674.0,-1263.75,2053.75,4
-29.5,340.25,-60.25,922.75,-185.5,1685.0,-1087.75,2047.5,4
-39.0,124.75,-75.75,799.0,-166.25,1058.25,-1130.0,1898.25,4
-50.0,102.75,-102.75,694.75,-132.0,288.75,-1251.75,2000.5,4
-15.75,305.25,-116.5,-602.25,-100.0,-289.75,-1070.5,2538.25,4
50.0,413.75,-111.25,-1142.25,649.0,-275.25,-1252.75,2968.5,4
12.5,448.25,-126.75,-1041.5,960.0,-259.25,-1339.0,2866.25,4
3.0,182.0,-128.25,-972.75,427.5,-294.75,-1234.0,2513.25,4
35.25,40.5,-44.25,-773.25,-89.25,-369.25,-1125.0,1956.5,4
11.25,-153.25,70.75,-563.0,58.75,-398.25,-1014.5,1704.75,4
-16.5,-373.0,93.25,-539.25,89.5,-419.25,-1183.5,1545.75,4
-56.25,-409.5,75.75,-266.75,100.25,-421.25,-1036.25,1127.75,4
-45.75,-379.5,-27.0,-88.75,99.75,-414.75,-1015.75,929.75,4
-57.25,-339.5,-63.5,20.0,104.25,-349.25,-1064.25,1222.25,4
-54.0,-296.0,-35.0,281.5,104.75,-270.25,-988.25,1290.75,4
-52.25,-189.0,-63.5,423.25,105.0,-153.75,-1150.75,882.0,4
-60.5,-194.75,-33.75,521.75,80.5,-68.75,-1008.0,562.5,4
-35.5,-160.5,-87.0,430.25,46.25,-283.0,120.25,345.25,4
-50.75,-156.5,-91.25,603.75,27.0,-511.0,1074.25,256.0,4
-32.75,-197.75,-85.0,458.25,-13.5,-269.75,1087.5,20.25,4
-6.5,-129.0,-137.0,294.5,-27.75,192.75,1194.25,-127.5,4
-9.75,9.25,-103.25,338.75,-17.0,665.25,1398.5,-297.0,4
-3.75,213.25,-60.25,247.5,-21.0,1101.0,1547.75,-825.5,4
22.5,232.75,19.75,356.0,-24.5,1454.0,1570.0,-1103.0,4
8.5,62.0,87.75,576.0,-29.75,1678.5,1739.75,-1314.75,4
1.25,17.0,89.25,716.75,-40.5,1579.0,1889.0,-1756.75,4
9.0,4.0,101.0,735.5,-58.5,1430.25,2005.25,-1748.0,4
-15.75,113.0,124.5,614.75,-818.0,1375.75,1988.25,-1974.75,4
-21.25,147.0,111.75,316.75,-1904.25,1368.5,1944.25,-2273.5,4
-49.0,-110.75,80.25,53.75,-2081.0,1322.25,1916.0,-2438.0,4
-68.25,-298.0,119.0,-65.5,-2096.75,1392.5,1900.5,-2639.0,4
-59.5,-409.25,149.5,-130.5,-2086.0,1460.5,1893.5,-2739.0,4
-15.5,-280.5,103.5,-141.75,-2064.25,1563.25,1861.5,-2739.25,4
23.25,-124.75,90.5,-37.75,-2032.5,1634.0,1838.75,-2724.75,4
11.25,-84.25,107.75,5.0,-2024.25,1432.75,1832.0,-2712.25,4
-43.0,-8.75,186.25,75.5,-1996.0,1256.0,1822.25,-2698.75,4
-93.0,-273.5,355.25,278.25,-1936.5,1124.0,1829.0,-2689.25,4
-93.0,-299.25,355.75,174.0,-1500.0,955.25,1826.75,-2674.0,4
-21.75,90.75,359.5,89.0,-863.0,972.5,1813.5,-2657.5,4
53.25,150.25,425.75,167.75,-306.5,957.0,1816.75,-2633.5,4
44.75,123.75,326.5,124.0,74.25,794.5,1593.25,-2574.75,4
16.25,147.75,241.0,61.0,137.25,761.75,1477.25,-2399.75,4
-6.25,49.25,138.0,39.0,1219.75,688.75,1324.5,-2371.0,4
14.0,32.25,-22.75,37.25,2134.75,581.25,1045.5,-2256.5,4
35.5,-13.25,-166.25,-12.0,2108.0,582.0,1007.25,-2244.5,4
4.5,-107.5,-286.5,48.0,2105.25,560.25,971.25,-2169.0,4
-52.75,-3.25,-330.25,-21.75,2116.0,412.25,893.0,-2086.5,4
-109.25,18.25,-392.25,-74.5,2107.75,328.75,704.75,-1863.25,4
-122.5,-134.0,-435.25,12.25,2135.5,313.5,459.75,-1109.0,4
-118.5,-186.5,-394.5,87.0,2206.75,233.75,273.75,-374.5,4
-43.25,-88.75,-384.25,115.75,2265.75,199.5,-1.0,218.75,4
0.5,-19.75,-413.0,56.75,2308.0,133.5,-290.5,257.0,4
-35.75,-114.75,-400.25,19.75,2323.75,94.5,-502.5,241.5,4
-41.0,75.75,-375.0,-54.0,2330.75,152.5,-602.0,287.75,4
-44.0,229.0,-354.75,-92.5,2333.0,198.0,-622.25,244.25,4
-82.25,20.25,-333.0,-152.0,2348.5,177.75,-608.0,173.75,4
-129.5,-88.5,-338.25,-99.25,2364.0,175.0,-512.75,294.5,4
-161.0,-257.0,-320.75,-0.75,2368.5,170.5,-470.75,511.0,4
-103.75,-181.5,-332.25,21.0,2376.5,187.25,-667.75,665.25,4
-56.5,-134.25,-311.0,37.5,2351.0,200.5,-866.25,816.75,4
-42.0,66.75,-234.75,-2.0,2329.5,112.0,-809.5,1004.25,4
16.75,255.0,-206.5,-103.25,2295.5,62.75,-642.0,1120.0,4
-21.0,55.75,-181.25,-93.25,2276.0,91.5,-407.75,1102.25,4
-33.25,110.75,-164.0,-63.0,2257.5,53.75,-151.0,473.75,4
-7.25,64.5,-144.5,-74.75,1843.25,-104.75,45.0,-343.5,4
-11.25,31.0,-109.75,3.5,1457.75,-215.75,167.0,-952.75,4
10.0,-17.5,-70.25,-33.75,1108.0,-303.25,244.25,-1297.75,4
-0.75,-71.0,1.75,-47.25,754.5,-279.75,216.5,-1244.5,4
6.5,19.25,-9.5,-68.5,340.5,-315.25,30.0,-1095.0,4
50.0,124.75,-70.75,-191.75,-39.25,-571.0,-194.0,-938.75,4
50.25,197.25,-36.75,-146.5,-95.5,-862.75,-450.0,-905.75,4
-3.75,52.0,30.25,-119.25,-145.5,-1292.25,-729.0,-892.25,4
-24.75,-38.0,95.25,-38.5,-268.5,-1656.5,-962.0,-791.25,4
-27.75,-67.25,98.0,-43.0,-653.5,-1664.0,-1169.25,-685.25,4
-56.0,-221.75,138.5,-88.0,-1043.5,-1664.25,-1209.5,-500.25,4
-37.5,-245.0,207.25,25.25,-1405.75,-1676.25,-1028.0,-359.25,4
32.5,23.0,151.0,2.75,-1984.25,-1672.0,-899.75,-207.5,4
50.25,132.5,80.0,-151.25,-2096.75,-1684.25,-855.75,18.25,4
28.0,89.0,105.0,-244.5,-2145.75,-1703.25,-769.0,156.75,4
10.5,92.5,204.75,-171.0,-2121.75,-1681.5,-908.0,641.25,4
-14.25,18.25,210.75,-283.5,-2079.75,-1653.5,-1135.0,1304.5,4
4.0,30.25,225.5,-166.5,-2047.5,-1629.5,-1143.0,1961.75,4
18.5,80.5,249.75,85.25,-2098.25,-1593.75,-763.5,2092.0,4
-81.5,-58.75,225.0,36.75,-2244.5,-1562.0,-467.0,2187.5,4
-202.75,-85.25,249.5,117.5,-2400.5,-1493.0,-65.5,2281.5,4
-234.0,37.25,143.25,86.25,-2335.25,-1225.0,330.75,2311.5,4
-188.5,-66.5,50.5,93.0,-2479.75,-855.75,221.5,2301.75,4
-105.75,-103.75,84.5,41.0,-2142.0,-568.75,-79.5,2276.75,4
-61.25,-100.0,30.75,-40.75,-1532.25,-331.0,-179.25,2279.5,4
-4.25,-127.5,-5.75,-13.5,-1903.5,-142.0,-296.5,2269.0,4
145.25,-90.25,79.5,-166.5,-2426.25,-158.25,-459.75,2551.75,4
558.0,-367.0,523.5,-577.0,-3270.5,-501.75,-85.75,2854.25,4
1058.25,-446.25,680.5,-702.25,-3144.0,-444.25,-4.5,2676.25,4
998.5,33.75,427.5,-585.5,-2632.25,-211.75,-13.0,2332.0,4
812.5,-36.0,244.25,-479.75,-2495.25,-158.0,140.75,2369.5,4
800.0,-185.25,174.5,-334.25,-2152.25,111.0,-87.25,1833.0,4
627.5,127.25,-9.25,-249.5,-1761.75,421.5,-268.75,1355.25,4
483.25,361.0,-554.75,214.75,-1106.25,752.75,-423.5,264.25,4
-639.0,985.5,-825.25,1063.25,-1483.0,785.25,-311.0,-314.0,4
-791.75,938.75,-719.25,896.75,-2638.25,234.5,-47.5,-943.5,4
-579.5,647.5,-720.25,455.5,-2626.0,118.75,-409.5,-1709.0,4
-774.0,582.0,-529.5,565.25,-2506.5,13.5,-555.5,-1490.75,4
-760.75,371.0,-362.25,437.0,-2491.0,26.5,-728.0,-1476.25,4
-752.75,526.75,-388.25,506.0,-2371.75,224.0,-972.75,-1523.5,4
-785.0,379.25,-257.5,172.75,-2178.25,349.75,-1027.25,-1497.0,4
-781.75,195.75,-250.75,192.0,-2087.5,440.5,-1172.75,-1447.0,4
-831.5,282.0,-148.75,155.25,-1938.0,446.25,-1291.0,-1221.75,4
-556.75,98.75,-171.25,165.25,-1908.75,522.5,-1235.0,-884.25,4
-532.75,91.25,-149.5,202.0,-1784.5,569.5,-1128.0,-184.25,4
-267.5,131.75,-266.0,-90.25,-1698.25,719.0,-1200.0,257.75,4
-213.5,-111.5,-240.0,-63.5,-1334.75,873.0,-1182.75,770.0,4
-118.0,-173.0,-127.25,-106.5,-1152.75,992.0,-1197.75,614.25,4
-23.5,-123.25,-95.25,51.75,-1070.0,1111.25,-1292.5,764.0,4
-26.75,-168.25,5.5,54.5,-939.0,1167.25,-1205.75,972.0,4
24.5,-134.0,104.0,-25.75,-914.25,1236.5,-1299.0,1134.5,4
30.5,-147.75,239.0,23.25,-697.5,1364.25,-1482.5,1236.5,4
62.5,-28.75,237.75,-6.0,-620.25,1424.75,-1380.75,1113.75,4
40.0,-154.75,225.25,-4.0,-554.75,1369.5,-1318.25,1151.5,4
11.5,-288.75,226.0,-14.0,-358.5,1459.5,-1340.0,922.5,4
-126.25,-168.5,233.5,40.75,-208.5,1536.25,-1472.25,615.25,4
-195.5,-68.25,209.75,59.5,-647.75,1441.5,-1449.5,421.25,4
-276.75,-185.25,247.75,92.5,-952.0,1547.5,-1420.0,-71.0,4
-278.75,-166.0,307.75,103.25,-938.0,1545.75,-1480.25,-728.0,4
-188.5,-23.25,312.75,54.75,-1068.75,1493.0,-1599.25,-1336.0,4
-148.25,-222.5,327.5,-0.25,-1223.5,1536.25,-1559.0,-1729.75,4
-127.0,-277.25,348.0,46.25,-1536.5,1467.75,-1391.75,-1857.25,4
-113.5,-311.75,362.0,48.0,-1623.5,1440.5,-1521.5,-1876.75,4
-45.0,-162.0,265.0,-103.75,-1486.25,1291.25,-1717.75,-1909.75,4
22.5,0.0,216.0,-188.25,-1018.25,1128.25,-1754.25,-1911.5,4
106.75,-143.75,232.75,-191.5,-364.0,969.25,-1900.0,-1972.75,4
210.75,-202.75,173.75,-118.5,456.75,785.75,-2265.25,-1588.0,4
310.25,-15.25,131.5,-71.75,1103.5,588.75,-2711.25,-1041.0,4
335.25,170.0,102.0,-138.5,1060.0,364.75,-2930.5,-521.0,4
369.25,79.25,89.5,-210.75,1013.5,210.5,-2878.5,-95.0,4
438.75,-25.75,108.75,-284.75,1004.25,140.5,-2552.5,-8.0,4
415.5,-136.25,44.75,-348.5,1009.0,231.5,-2177.5,15.75,4
446.0,-76.75,-98.75,-411.75,1294.5,291.5,-1565.5,-6.25,4
513.75,-159.75,-112.75,-338.25,1621.75,320.0,-724.75,-16.0,4
487.75,-420.5,-17.0,-361.25,1532.0,286.25,135.75,-3.0,4
470.5,-217.5,-21.0,-422.75,1429.25,184.25,1009.5,34.0,4
400.75,23.25,-15.0,-438.0,994.5,64.5,1417.0,149.25,4
278.5,-56.25,-123.25,-564.75,466.0,-184.75,1877.75,339.5,4
131.25,-39.0,-282.75,-617.5,557.75,-626.25,2288.5,126.25,4
-324.0,-2.75,-265.25,-588.25,700.25,-814.25,2538.5,-422.0,4
-841.75,-259.0,129.5,-434.5,824.75,-647.5,2111.75,-1064.25,4
-762.25,-370.5,665.5,-356.5,1192.0,-498.0,2161.0,-1732.75,4
-500.75,-193.0,661.75,-325.25,1799.0,-409.75,1903.75,-1800.25,4
114.25,-252.0,292.5,-263.5,2422.0,-4.25,1653.25,-1977.0,4
842.0,39.5,-89.0,194.5,2408.0,459.0,1117.5,-2522.5,4
821.25,80.75,-157.25,1019.75,2310.25,1186.25,704.0,-2390.5,4
670.0,-305.25,-89.5,1057.25,2376.5,1268.0,954.75,-2058.5,4
699.25,-153.75,-190.0,686.25,2310.5,1007.25,1472.25,-1893.25,4
558.75,-252.25,-119.0,801.75,2519.75,1206.25,1598.25,-1477.25,4
567.0,-230.25,20.75,699.25,2472.75,1025.5,1797.75,-829.0,4
317.5,-221.75,132.75,561.75,2301.5,1008.0,1841.25,-278.75,4
124.0,-168.0,157.25,599.0,1902.25,925.25,1664.75,92.75,4
-97.0,192.75,87.5,370.5,1506.0,848.5,1189.75,187.75,4
-160.75,154.0,30.5,297.25,1433.5,921.5,1069.75,-41.75,4
-108.5,159.5,71.0,365.5,1390.25,983.75,988.5,-285.25,4
-203.25,194.0,216.0,546.5,1347.75,1081.75,991.0,-369.75,4
-246.75,203.0,210.0,412.0,1303.0,932.75,654.25,-439.0,4
-393.25,235.75,134.75,176.75,1451.75,859.25,322.0,-323.25,4
-367.25,159.0,99.5,123.25,1547.5,795.0,295.0,-227.5,4
-385.0,141.25,-7.25,-108.75,1740.5,753.75,456.75,-177.5,4
-344.0,184.25,-68.0,-173.5,1950.75,719.5,514.0,-103.0,4
-243.75,145.25,-77.75,-226.5,1777.5,615.5,346.75,-13.75,4
-132.0,71.75,-155.0,-155.0,1804.0,518.25,-2.25,30.5,4
-116.25,-50.5,-154.75,-89.25,1817.75,378.5,-200.5,85.0,4
-167.75,-43.5,-35.0,-193.0,1606.75,313.0,-236.75,464.25,4
-182.75,83.0,60.0,-330.75,1647.75,274.25,180.0,1051.0,4
-245.75,131.75,120.75,-554.75,1824.75,113.25,654.0,1626.75,4
-279.0,369.0,87.5,-486.0,2496.75,225.5,747.5,1842.75,4
63.25,181.25,-71.0,-100.25,2789.75,640.25,376.0,1806.25,4
303.75,-13.25,-306.25,-152.25,2401.5,359.0,375.25,2189.75,4
22.75,305.75,-511.0,-523.0,1718.25,37.0,404.5,2338.0,4
-179.0,629.75,-594.25,-748.0,1474.75,-230.0,755.25,2547.25,4
-620.0,964.75,-235.75,-648.25,1685.25,-160.0,585.5,2299.75,4
-628.75,379.75,493.0,-526.5,2203.25,47.75,-36.0,1930.5,4
-288.5,-86.75,226.0,-678.0,2802.0,127.5,-299.75,1604.0,4
457.0,-247.25,-334.0,50.0,3127.75,844.5,-841.0,477.5,4
837.75,-870.0,-83.75,933.25,2832.25,896.25,-646.5,634.75,4
677.0,-485.25,-51.0,716.25,2809.25,645.75,-313.5,1029.0,4
730.25,-162.0,-147.75,230.0,2281.0,532.75,-217.25,995.0,4
476.5,-540.25,-111.0,277.75,2489.0,458.5,-110.0,1325.75,4
355.0,-695.25,-28.75,98.75,2755.75,380.75,192.75,1558.0,4
356.0,-635.0,-86.25,13.0,1611.5,65.0,550.75,2099.25,4
-227.75,44.25,-410.5,-484.75,365.25,-534.0,831.25,2601.5,4
-243.25,357.25,-484.25,-393.0,133.0,1.25,-145.5,1638.0,4
424.25,-295.5,-57.75,506.5,637.25,569.25,-905.5,1384.5,4
439.25,-107.25,-77.5,148.5,268.75,-95.25,-642.75,1957.25,4
38.25,148.75,-75.0,155.5,328.25,95.5,-756.0,1536.0,4
478.25,-29.75,159.25,295.75,-148.5,-166.75,-391.0,1878.75,4
20.75,2.5,-2.75,-251.0,-1594.75,-532.25,-362.75,1986.75,4
92.5,-94.25,39.5,-150.0,-2092.0,-464.25,-535.25,1933.25,4
21.75,205.5,-44.75,-220.5,-1839.25,-602.0,-780.25,1704.5,4
-61.5,185.0,-75.25,-48.0,-1226.5,-319.0,-858.75,1234.0,4
-107.75,90.25,-142.5,-428.25,-1805.0,-460.0,-295.5,1082.5,4
-156.75,279.5,-70.75,-318.5,-577.75,-235.5,-232.75,400.25,4
90.5,39.5,150.75,-53.0,-1181.5,-351.25,-227.5,275.5,4
-158.5,-67.25,135.5,-301.5,-2013.0,-517.0,-64.25,11.0,4
32.25,28.25,58.75,-75.5,-1641.0,-585.5,-266.75,-383.0,4
-14.75,97.0,-159.75,-196.25,-1515.0,-570.5,-607.5,-615.25,4
-34.0,62.5,-245.25,-92.75,-1958.5,-458.25,-585.5,-683.0,4
-267.75,-264.5,-143.5,-153.75,-2619.75,-599.25,-687.75,-551.75,4
-313.25,-470.75,16.25,-435.0,-2976.25,-787.75,-608.5,-415.25,4
-402.75,-258.5,-22.0,-632.25,-3098.75,-1179.0,-181.5,-293.0,4
-559.25,280.25,-59.75,-436.25,-2323.75,-981.75,-362.0,-822.5,4
-86.5,326.5,127.25,132.25,-1630.25,-487.25,-932.25,-1378.0,4
235.25,-132.0,210.5,167.75,-1768.25,-529.75,-818.25,-1334.0,4
115.25,94.75,152.25,-86.25,-2018.75,-811.0,-364.0,-1147.5,4
98.0,209.75,166.0,-191.75,-2096.0,-713.25,-312.25,-1049.75,4
176.0,163.75,102.75,-139.0,-2441.75,-789.75,332.5,-859.75,4
110.0,-21.0,296.0,-273.0,-1532.75,-641.75,506.5,-1072.75,4
146.0,-429.0,442.75,-364.75,-1540.75,-724.25,621.5,-853.0,4
-76.0,-334.5,281.25,-320.5,-2027.5,-964.0,817.25,-763.5,4
-6.5,-455.0,391.75,-96.75,-1134.5,-947.5,731.25,-812.25,4
23.5,-316.75,187.0,-9.5,-1272.0,-1197.25,862.25,-684.0,4
92.75,394.75,-111.75,92.5,513.5,-1099.0,990.25,-847.0,4
71.75,592.75,-165.5,-140.5,1422.25,-1236.5,1153.5,-604.25,4
-107.25,222.0,24.5,-56.75,1946.5,-1301.75,778.25,-482.75,4
-6.0,-57.75,241.75,353.0,2007.5,-1384.75,261.75,-325.0,4
38.5,-77.0,215.0,170.0,1180.0,-1543.5,-98.75,-270.0,4
158.25,181.0,169.25,7.75,1080.75,-1585.25,68.5,-210.0,4
-122.0,49.0,-3.5,-292.0,-250.5,-1733.0,713.75,-39.25,4
-319.75,100.0,-194.0,-363.5,-808.75,-1808.0,1421.0,234.5,4
-366.75,205.5,-449.25,-523.75,-1113.5,-2160.5,2057.25,745.25,4
-407.0,114.75,-535.75,-427.75,-910.0,-2142.0,2302.0,797.0,4
-232.5,379.0,-439.25,-248.75,-610.0,-1954.5,2314.0,705.0,4
-46.25,462.0,-459.0,-288.5,-871.75,-1716.75,2093.25,606.75,4
-36.25,597.25,-487.25,-208.5,-498.0,-1392.25,1695.5,463.0,4
-443.25,378.75,-490.0,-270.75,-284.5,-1038.75,1393.5,504.25,4
-846.75,294.75,-358.0,-340.75,654.75,-730.75,1250.25,624.75,4
-848.5,121.5,-200.75,-90.25,1220.75,-530.25,1141.5,546.5,4
-709.25,-276.0,-196.25,198.0,1947.25,-266.0,1165.0,400.5,4
-516.75,-315.75,140.75,18.0,1653.0,-139.75,1390.0,273.25,4
-362.5,-422.0,606.75,139.75,1619.25,-139.25,1577.5,26.0,4
-147.25,-405.5,673.25,415.25,2014.25,-221.0,1585.5,-102.25,4
104.5,-180.0,904.25,207.0,2425.5,-214.0,1543.5,-178.0,4
368.0,42.5,790.25,-37.5,2266.0,-174.75,1519.25,-202.0,4
701.0,-52.25,653.25,8.5,2362.5,-58.25,1661.75,-158.75,4
854.25,100.25,630.25,342.25,2643.25,3.75,1887.75,-159.75,4
628.0,7.0,434.0,271.5,2475.0,11.0,1799.0,-133.75,4
352.25,-84.5,358.0,354.75,2402.5,88.0,1942.5,-128.5,4
182.0,-6.25,147.0,394.25,2213.5,168.75,2129.0,-112.5,4
174.0,-139.0,8.0,286.25,2052.0,437.75,1973.5,-139.0,4
96.75,-59.25,-53.25,375.0,1927.25,721.5,1765.25,-133.75,4
21.0,-122.25,-202.0,179.75,1969.25,918.25,1493.5,-142.5,4
-21.0,-270.75,-245.75,252.25,2040.75,1030.75,1312.5,-165.5,4
51.75,-242.5,-162.75,336.5,2065.75,1092.25,1124.5,-138.75,4
312.75,-85.75,-163.75,206.0,2091.5,1177.25,692.25,-100.5,4
497.75,-76.0,-175.0,198.75,2140.75,1319.75,-767.0,-113.0,4
373.5,-77.75,16.0,220.0,2007.5,1668.0,-1235.5,-18.5,4
-36.5,-382.5,108.5,187.0,877.25,2079.0,-995.75,147.0,4
-259.5,-381.25,117.75,81.25,405.25,2321.25,-926.25,181.25,4
-369.75,-255.75,58.75,88.0,469.0,2401.0,-994.75,124.0,4
-287.25,-382.75,-80.75,150.75,510.5,2458.75,-921.75,-5.75,4
-70.0,-278.5,-168.25,231.5,490.0,2410.5,-885.25,-247.5,4
43.75,-357.5,-119.25,303.75,424.5,2395.5,-911.25,-465.0,4
118.5,-419.25,97.25,388.0,361.5,2132.25,-987.75,-739.0,4
88.75,-305.25,243.0,619.75,328.25,1808.0,-1436.75,-1029.5,4
624.5,221.0,308.25,492.5,300.0,1418.25,-1782.0,-956.25,4
745.75,707.0,169.25,355.25,280.75,1001.5,-1696.0,-892.25,4
440.25,371.5,109.0,505.75,2181.75,534.0,-1444.5,-944.25,4
426.25,399.5,114.75,462.0,1939.5,106.75,-1216.25,-614.5,4
164.75,297.75,5.0,153.0,1126.5,-397.25,-720.25,340.5,4
-520.5,-344.75,-47.5,-647.25,627.0,-847.5,-225.5,650.25,4
-1016.75,-317.75,-268.0,-923.25,-960.0,-585.0,-135.5,557.75,4
-906.75,241.0,-430.25,-723.5,-1185.75,-162.75,-120.0,572.5,4
-331.25,512.5,-534.0,-766.5,-1335.25,-103.25,-163.0,384.5,4
-332.25,819.75,-652.25,-701.75,-1293.25,174.25,-377.75,-64.75,4
1.25,829.0,-704.75,-413.0,-1498.25,189.75,-531.0,-349.25,4
-29.75,699.25,-620.25,-363.25,-1933.75,197.25,-832.25,-624.0,4
181.75,669.0,-388.0,-184.0,-2638.75,190.0,-948.25,-545.75,4
224.25,527.75,-204.25,-209.25,-2312.5,83.75,-1028.0,-667.5,4
166.25,445.75,-116.0,-84.25,-2128.75,13.5,-1121.0,-638.5,4
181.25,300.5,-123.75,-99.0,-2106.75,-189.5,-1156.25,-749.25,4
124.0,216.5,-122.5,-23.75,-2225.5,-242.25,-1167.25,-748.25,4
98.25,155.25,-141.75,-15.0,-2251.25,-345.0,-1154.5,-744.0,4
-145.0,43.25,-178.75,27.0,-1945.0,-283.25,-1257.5,-769.0,4
-120.25,-17.0,-174.25,66.0,-1725.25,-314.0,-1179.0,-772.75,4
-237.0,-77.75,-116.75,91.0,-1673.75,-224.75,-1033.75,-801.75,4
-184.25,-77.0,-37.75,145.75,-1750.75,-95.25,-993.5,-610.0,4
-81.0,-137.0,16.0,128.25,-1790.5,36.0,-1057.75,-457.75,4
-8.75,-106.25,84.75,151.0,-1852.0,121.75,-1129.0,-231.25,4
66.0,-98.5,78.75,140.25,-1906.0,128.75,-979.0,-97.75,4
85.5,-116.5,49.5,177.0,-1950.0,171.75,-699.25,11.0,4
16.5,-162.5,22.0,168.25,-1931.25,110.5,-627.5,64.75,4
-138.25,-199.0,-29.5,198.75,-1867.25,92.25,-657.25,130.5,4
-157.0,-209.25,-52.75,162.0,-1913.75,80.0,-323.0,271.25,4
-203.25,-171.5,-116.0,74.75,-1191.25,44.0,292.0,519.75,4
-182.25,-138.25,-146.5,81.0,-111.75,-12.5,1001.75,828.5,4
-164.0,-211.5,-239.5,95.5,588.25,7.5,1250.75,1101.75,4
-107.75,-451.0,-363.5,53.0,1306.5,229.5,1048.0,1587.0,4
-237.75,-709.5,-289.75,122.75,1587.0,350.75,517.5,1444.25,4
-509.75,-499.75,-43.0,579.0,1639.75,275.5,-315.25,793.0,4
-178.0,108.0,61.25,633.5,1397.5,231.75,-392.0,798.5,4
113.25,243.0,67.0,535.5,1303.75,333.25,-170.25,945.25,4
-160.0,101.5,201.5,575.5,1525.25,328.25,-85.0,979.0,4
-34.25,161.0,267.0,441.5,1301.5,300.75,156.5,1288.75,4
-74.0,138.75,350.0,274.25,644.0,228.25,715.75,1280.0,4
-108.25,143.25,421.25,227.25,58.75,254.0,756.0,693.0,4
-63.0,156.5,434.5,109.5,-239.5,220.25,813.75,97.0,4
-157.25,52.0,476.25,61.0,-311.5,140.75,809.75,-309.5,4
-72.25,56.25,444.5,-39.25,-386.5,112.25,847.25,-242.25,4
-150.5,0.0,433.0,-47.0,-424.25,82.25,843.75,-306.0,4
-114.25,-1.0,347.5,-63.25,-444.0,25.5,872.25,-292.75,4
-142.0,-32.75,277.5,-29.5,-355.0,-6.0,950.5,-364.5,4
-117.0,-43.25,206.0,-60.25,-118.0,-46.0,980.5,-314.25,4
-127.75,-125.75,119.5,-235.75,22.25,-356.25,1074.5,51.75,4
-303.0,-541.5,90.25,-738.75,154.25,-904.5,1142.75,252.5,4
-354.0,-654.5,-43.5,-873.25,528.25,-1065.0,1166.5,143.25,4
331.25,61.75,-297.0,-742.75,923.25,-1143.5,1220.25,-27.25,4
731.75,466.5,-367.75,-754.5,1207.0,-1364.0,1230.0,-239.0,4
498.0,684.25,-357.75,-582.25,1554.75,-1528.0,1128.25,-551.75,4
576.5,690.0,-408.0,-442.25,1567.75,-1522.5,1004.5,-391.75,4
355.75,551.0,-377.0,-488.5,1607.5,-1337.75,869.25,-521.0,4
328.75,562.5,-325.5,-319.25,1678.5,-1226.5,806.75,-546.25,4
201.5,319.5,-217.0,-353.5,1835.5,-1221.75,760.5,-739.25,4
119.0,262.25,-153.25,-241.75,2001.25,-1137.25,768.75,-997.5,4
116.0,163.75,-73.5,-192.5,2054.75,-1163.5,798.0,-542.25,4
37.5,81.75,-58.5,-104.5,2094.5,-1090.5,801.25,425.0,4
81.75,66.25,-117.5,-21.5,2126.25,-1091.25,807.75,685.0,4
7.5,-8.0,-181.0,47.0,2214.0,-1036.0,758.0,720.5,4
24.5,13.75,-264.0,100.0,2230.75,-1046.0,719.5,846.0,4
-31.25,-161.75,-267.75,99.75,2289.0,-968.75,191.5,887.25,4
-21.75,-318.5,-282.5,132.5,2340.5,-875.25,-308.75,859.5,4
-43.25,-394.5,-410.5,91.75,2336.75,-771.5,-731.0,796.25,4
-35.5,-241.0,-555.0,82.25,2123.5,-610.25,-1072.5,737.75,4
-34.25,-219.25,-540.75,57.75,1410.75,-447.75,-1212.25,725.0,4
-59.0,-216.75,-515.25,20.0,317.75,-307.5,-1198.0,668.0,4
-50.25,-104.5,-542.0,-22.25,-483.25,-56.25,-1179.25,685.0,4
-68.5,-121.75,-451.25,16.0,-906.5,188.0,-1144.75,736.5,4
-58.0,-110.25,-132.25,16.75,-1077.25,161.25,-1086.5,728.75,4
-127.75,-227.75,285.25,46.0,-957.0,225.0,-1032.5,701.5,4
-146.25,-393.25,697.75,79.5,-630.5,316.0,-1034.75,786.25,4
-160.75,-620.25,1018.5,20.75,-136.25,454.25,-1094.75,912.25,4
-247.5,-656.0,1035.0,39.75,-63.25,524.75,-1149.75,810.5,4
-555.5,-612.0,1119.5,226.5,-82.25,417.25,-1286.0,342.0,4
-739.25,-505.25,1128.0,592.5,51.0,485.5,-1628.0,-125.5,4
-717.5,240.25,856.25,519.0,343.75,709.25,-1753.75,-38.5,4
-631.75,520.5,697.25,399.0,523.25,940.5,-1509.25,119.75,4
-545.75,108.75,615.75,486.0,454.0,1113.75,-1472.5,139.75,4
-378.25,474.5,329.75,444.0,194.75,978.25,-1398.0,414.0,4
-277.0,310.75,203.5,405.75,52.25,911.0,-1250.25,522.5,4
-157.0,315.5,14.5,276.5,-114.5,827.25,-1201.0,652.75,4
-65.5,324.75,-150.75,127.0,-233.5,782.0,-1066.5,784.0,4
13.5,98.0,-299.75,72.0,-334.25,612.0,-1023.5,763.5,4
32.75,70.5,-374.5,17.75,-429.5,627.5,-950.5,828.5,4
29.25,-234.0,-389.75,32.0,-449.75,580.25,-932.25,728.0,4
73.5,-133.75,-412.75,-47.5,-496.0,537.0,-916.75,562.5,4
103.0,-125.0,-357.5,-39.75,-516.25,510.0,-906.5,308.25,4
105.75,34.5,-379.0,-78.75,-527.5,418.5,-862.5,314.5,4
139.75,83.75,-361.25,-158.0,-665.5,124.0,-771.75,331.0,4
131.25,-202.25,-369.25,-286.0,-533.25,-156.25,-714.5,332.75,4
85.0,-292.0,-348.25,-460.25,-484.0,-66.0,-650.75,241.75,4
86.5,-266.25,-300.75,-386.5,-466.75,139.25,-645.5,115.25,4
65.0,-241.25,-216.5,-367.25,-427.75,354.75,-640.25,21.75,4
152.5,-226.25,-210.25,-413.0,201.25,525.5,-659.75,-60.25,4
230.25,-197.0,-229.5,-299.75,919.75,618.5,-667.75,-193.75,4
126.5,-152.75,-164.5,-251.0,1589.0,436.25,-689.0,-631.25,4
55.5,-103.0,-144.75,-351.5,1652.25,279.25,-697.25,-884.25,4
71.5,-18.25,-127.25,-280.5,1695.0,-61.0,-686.75,-903.5,4
24.0,-216.25,-110.75,-105.75,1725.25,-369.0,-713.5,-1009.75,4
-6.5,-204.5,-56.75,-116.5,1765.25,-474.5,-683.25,-913.25,4
59.0,122.75,-9.75,-193.75,1707.75,-823.25,-418.5,-477.0,4
159.25,-400.5,154.0,-626.25,1545.5,-1283.0,-204.0,-195.5,4
558.0,-233.75,224.5,-741.0,1551.25,-1514.75,-288.25,-305.5,4
785.75,432.0,-30.25,-499.25,1568.75,-1492.25,-363.0,-496.75,4
722.25,730.75,-75.75,-505.5,1552.5,-1387.25,-320.5,-852.25,4
701.5,1216.25,-85.5,-336.25,-275.75,-1064.5,-477.75,-1334.5,4
681.0,1044.5,-123.75,-132.0,-368.75,-778.5,-537.5,-1211.25,4
507.5,734.0,-130.5,-145.0,-238.5,-469.25,-717.0,-1219.75,4
375.25,579.5,-166.75,68.75,-14.75,-86.0,-771.0,-1160.25,4
239.0,489.25,-87.75,85.25,162.0,192.0,-147.75,-1002.5,4
199.75,327.75,-113.25,86.0,264.0,285.5,534.25,-808.5,4
45.75,-154.0,-120.75,-348.5,296.5,116.75,1015.0,-576.75,4
-69.5,-271.75,-134.5,-625.0,344.75,94.5,909.0,-486.0,4
-103.5,-240.0,46.75,137.5,359.5,277.75,861.0,-396.5,4
-105.25,-233.75,196.0,586.0,391.75,622.25,775.5,-391.0,4
-123.75,-137.0,89.0,267.0,410.75,1006.25,774.5,-442.5,4
-239.0,-118.5,53.25,172.5,2423.25,1291.75,752.25,-589.25,4
-282.5,-213.25,14.25,133.0,2422.25,1273.25,707.75,-726.0,4
-370.5,-272.75,-14.5,169.0,2449.0,1119.0,585.75,-795.75,4
-394.5,-301.25,-129.5,102.75,2708.0,932.75,553.25,-708.25,4
-72.25,-408.75,-358.0,21.0,2918.75,650.5,551.25,-721.25,4
411.0,-214.25,-555.25,186.25,2683.5,298.5,498.25,-1220.25,4
200.25,41.75,-449.25,578.5,2424.0,195.0,343.5,-1787.25,4
-815.5,22.0,-61.75,806.5,409.5,130.75,388.5,-1805.5,4
-895.0,-46.0,15.25,636.75,-144.75,-109.5,531.25,-1689.5,4
-570.0,-35.5,-19.25,746.75,-382.0,-65.75,562.0,-1794.5,4
-791.25,6.5,183.75,681.0,-779.0,-60.5,699.75,-1671.75,4
-725.75,88.75,155.75,275.75,-1538.0,-181.0,771.0,-1470.25,4
-470.25,36.0,103.5,206.75,-1437.5,-74.0,780.75,-1359.5,4
-663.25,-136.75,147.5,263.25,-1308.75,106.5,814.5,-1312.0,4
-632.0,-242.25,148.75,314.75,-1596.25,162.0,882.25,-1353.75,4
-654.5,-363.0,234.75,329.25,-1334.0,276.75,913.0,-1420.75,4
-712.0,-356.5,289.0,337.0,-1709.25,347.0,940.75,-1413.75,4
-528.25,-91.75,267.75,149.0,-2016.5,268.5,998.25,-1397.75,4
-122.25,202.0,256.25,201.25,-1843.5,288.75,993.0,-1338.25,4
122.25,190.5,192.25,-29.0,-2084.5,88.5,1140.5,-1014.25,4
629.5,116.5,25.75,-584.5,-2005.0,-117.75,1314.5,-781.0,4
1091.25,136.75,-82.75,-758.5,-1394.25,397.75,1214.75,-981.75,4
639.0,-215.0,57.25,42.5,-924.5,1380.5,895.5,-1313.25,4
24.5,-242.5,151.75,56.0,-1075.75,1297.5,1029.25,-859.25,4
169.5,151.25,59.25,-266.25,-1488.75,1310.0,1036.0,-883.0,4
-236.75,24.75,233.25,515.5,-1695.5,1709.5,1041.5,-536.75,4
-363.0,49.75,321.75,322.0,-2624.0,1084.0,1204.0,127.75,4
-362.25,137.25,510.75,605.25,-2506.0,1029.5,1204.5,137.0,4
-446.75,213.25,636.25,503.25,-2286.75,505.0,1381.75,483.75,4
-352.5,255.0,535.75,261.5,-1509.0,438.75,1354.0,386.0,4
-388.5,151.25,518.75,397.25,-1263.25,256.25,1404.25,615.75,4
-347.0,120.25,421.75,368.5,-1147.25,269.25,1385.25,884.75,4
-423.25,-200.5,406.25,558.5,142.0,583.0,1388.75,1030.25,4
-395.0,-303.75,315.25,389.25,1249.5,683.25,1426.5,1078.25,4
-288.25,-117.0,222.5,358.25,1726.25,793.75,1353.25,1048.0,4
-231.75,123.5,126.5,244.75,1692.0,609.75,1294.0,965.5,4
-252.5,294.75,28.0,231.0,1771.25,606.0,732.5,689.75,4
-326.0,191.0,-50.25,47.0,1743.5,497.75,-137.5,333.0,4
-330.75,-16.75,-120.5,2.5,1784.5,547.0,-663.25,-67.75,4
-369.0,-40.0,-148.5,18.0,1746.75,539.75,-639.75,-277.25,4
-440.25,-1.25,-261.5,-122.25,993.0,643.25,-706.5,-721.75,4
-562.25,-69.75,-312.0,-146.75,-124.5,809.75,-742.5,-901.5,4
-501.25,-165.0,-367.5,-291.75,-218.5,733.75,-811.0,-781.25,4
-351.5,-169.5,-406.25,-288.25,-101.5,507.75,-863.5,-479.0,4
-87.0,116.75,-390.25,-205.25,-90.75,154.75,-849.5,-94.75,4
78.0,120.75,-440.0,-141.5,-106.0,-113.75,-905.25,224.75,4
147.0,-70.75,-474.75,-264.0,-295.75,-570.75,-941.75,426.25,4
198.0,-53.25,-511.25,-303.5,-267.25,-1091.5,-998.75,280.25,4
129.75,-27.25,-524.25,-292.0,-33.0,-1322.75,-1049.0,242.0,4
188.75,-25.25,-526.5,-470.75,266.0,-1235.75,-1088.75,264.75,4
156.75,-209.25,-531.0,-658.5,421.0,-1370.5,-1096.5,488.0,4
227.75,-233.75,-456.25,-763.0,581.25,-1474.75,-1101.75,767.75,4
443.5,-92.75,-369.0,-616.5,764.25,-1474.75,-1129.75,781.25,4
757.0,-0.25,-375.0,-625.5,989.0,-1272.0,-1159.0,638.5,4
1117.0,35.5,-387.25,-772.75,1047.75,-812.75,-1206.75,339.75,4
1351.0,11.25,-319.75,-658.5,993.75,-571.25,-1251.0,-45.25,4
1293.25,-101.0,-301.0,-537.25,525.25,-418.0,-1244.25,-52.75,4
1160.75,-166.0,-365.0,-600.0,1038.0,-188.75,-1281.75,188.0,4
1375.25,-227.25,-198.25,-620.25,1494.0,28.25,-1293.75,285.75,4
1141.25,-148.5,-42.0,-535.0,1199.75,-164.0,-1171.25,543.5,4
467.0,10.0,-136.0,-530.25,972.75,-376.25,-1187.0,711.25,4
285.25,-61.0,-228.25,-481.25,1163.25,-522.0,-1204.0,864.5,4
146.25,80.5,-294.5,-459.25,1782.0,-733.75,-1292.25,838.5,4
333.25,156.75,-233.25,-401.5,2352.75,-700.75,-1366.75,781.5,4
402.75,109.0,-188.75,-351.0,2297.25,-800.25,-1236.75,1095.75,4
180.75,82.75,-256.25,-294.5,2364.0,-814.5,-382.25,1159.5,4
158.75,-12.0,-301.25,-215.75,2135.0,-799.0,854.0,1131.25,4
6.25,-311.25,-375.25,-335.75,1882.0,-861.25,922.25,1204.25,4
-406.0,-298.75,-361.5,-312.0,1413.75,-1046.0,1017.75,1352.5,4
-742.0,150.25,-245.0,-330.5,2068.0,-887.5,891.25,1263.0,4
-53.5,33.25,-53.25,-405.0,2315.5,-491.75,736.25,1045.0,4
10.0,6.0,-118.25,-381.5,838.5,-782.5,926.75,1312.0,4
-559.5,296.25,-257.25,-326.5,-254.25,-888.25,987.75,1323.5,4
-500.0,410.5,-189.75,-185.0,-756.25,-960.25,1174.25,1490.25,4
-990.5,805.5,-190.25,-250.0,-880.25,-1156.75,1589.75,1798.75,4
-613.0,825.25,-283.25,-298.5,-655.5,-1070.25,1505.75,1777.5,4
-23.75,708.25,-355.5,-293.75,-413.25,-1225.0,1113.5,1749.25,4
206.25,478.75,-338.25,-300.5,653.5,-1354.5,906.25,1469.25,4
350.5,54.75,-106.25,-123.75,937.5,-1242.75,1070.0,935.0,4
417.0,-245.0,193.5,-24.5,935.25,-1176.25,1236.5,338.0,4
766.0,-340.5,367.5,-184.25,497.25,-820.5,1093.0,-45.75,4
780.0,-280.0,332.75,-192.0,-284.75,-425.75,839.75,-433.25,4
746.5,-342.25,227.0,-129.5,-1154.0,-9.5,726.5,-621.0,4
754.5,-164.0,219.5,-117.75,-1413.25,165.0,683.5,-512.75,4
453.5,-45.75,317.75,-30.25,-1450.25,334.5,673.0,-550.0,4
49.25,-126.0,261.25,19.25,-1554.75,491.75,723.0,-897.0,4
-287.0,-29.25,113.0,137.5,-1562.25,616.75,653.75,-1471.75,4
-411.0,-288.75,307.0,255.5,-1667.5,1001.0,415.5,-1642.25,4
-511.75,-714.5,496.75,532.25,-1760.75,973.25,358.5,-1759.75,4
-545.5,-562.75,366.0,754.5,-1857.75,758.0,397.75,-1920.75,4
-535.5,-509.25,344.25,730.75,-1915.0,734.0,426.5,-1926.0,4
-568.5,-618.25,714.5,659.75,-2142.75,773.0,639.75,-1788.5,4
-141.5,-482.75,911.0,623.25,-2314.5,884.0,790.0,-1562.5,4
429.25,-461.75,1178.5,568.25,-2285.0,943.75,822.5,-1329.5,4
926.0,-423.25,1220.5,470.75,-2323.25,702.5,856.75,-1014.25,4
1225.5,-264.75,1340.25,392.0,-2527.0,640.25,851.0,-666.5,4
1092.5,-229.5,1319.25,200.0,-2883.25,407.0,901.5,-376.25,4
978.0,-101.75,1268.5,203.0,-2859.25,253.25,924.0,-13.5,4
906.0,-177.25,1321.25,319.75,-2663.25,232.75,1025.25,360.0,4
709.0,-218.75,1148.25,270.25,-2241.5,186.75,983.5,628.5,4
620.75,-240.5,566.5,173.0,-1941.25,115.75,952.5,525.0,4
460.5,-88.25,-289.0,99.5,-1491.25,16.25,943.5,736.25,4
222.5,19.0,-528.0,139.0,-1180.0,-57.75,1171.25,841.75,4
-19.0,11.25,-636.0,106.25,-777.25,-198.75,1263.0,714.75,4
-80.25,88.75,-455.0,64.75,-339.25,-181.75,1232.25,807.5,4
-239.0,239.5,-185.5,70.0,-447.75,-293.5,1235.5,661.75,4
-233.5,295.25,31.75,95.5,290.0,-331.0,1125.75,582.25,4
-313.0,298.0,138.25,118.25,152.0,-293.75,817.75,614.5,4
-825.5,353.25,-237.25,18.25,-622.25,-427.75,645.25,735.5,4
-1105.75,346.25,-487.5,-36.0,-583.5,-510.25,598.75,839.75,4
-1165.75,264.75,-366.75,146.5,558.25,-518.25,512.5,804.25,4
-1172.25,131.5,-279.0,219.25,1151.75,-667.0,476.0,937.5,4
-1195.5,215.0,-403.0,-41.5,1262.0,-800.25,514.75,978.0,4
-1132.0,114.0,-707.25,12.25,1873.75,-830.75,153.25,813.5,4
-1117.5,-37.75,-973.0,80.75,2199.5,-878.75,-245.5,620.5,4
-1051.25,168.5,-872.5,45.0,2499.75,-900.75,-349.25,480.5,4
-975.0,198.25,-822.5,-15.25,2429.5,-1025.75,-313.5,379.5,4
-790.0,137.0,-454.75,-85.5,2199.25,-933.0,-264.5,355.25,4
319.75,42.0,169.25,9.25,2524.75,-917.25,-247.75,393.25,4
878.0,74.0,-162.5,-99.5,1954.0,-1060.75,90.5,373.0,4
784.25,71.75,150.0,-74.25,2024.25,-971.0,609.25,327.5,4
910.0,-184.5,943.0,36.5,2465.75,-968.25,1005.25,349.25,4
697.75,159.5,1138.5,124.75,2253.75,-953.0,1197.5,241.5,4
322.0,506.25,1114.75,123.0,1812.5,-937.75,996.25,152.75,4
-376.75,401.25,954.75,35.75,1309.25,-892.75,922.75,128.0,4
-548.0,310.5,856.75,79.25,1447.25,-791.25,1077.5,130.5,4
-224.0,117.75,610.75,52.25,1721.5,-649.25,1353.5,99.75,4
166.75,-249.5,-287.25,-13.75,2031.0,-575.25,2016.25,-47.0,4
659.75,-464.5,-1403.0,-55.5,2061.5,-386.0,1912.25,-290.0,4
955.25,-85.5,-1380.75,-7.75,2264.25,-128.25,1191.75,-510.75,4
1042.75,114.0,-1340.75,-37.0,2012.75,-130.75,628.0,-471.0,4
888.0,44.5,-1381.0,-112.5,1689.75,-25.25,147.0,-421.25,4
841.75,119.5,-1260.0,-69.5,2295.0,172.25,-47.75,-370.25,4
810.5,92.25,-352.75,-23.5,2628.5,266.25,-75.25,-305.75,4
223.0,111.0,601.25,67.75,1943.75,379.75,-518.75,-258.75,4
-582.0,87.25,1073.5,71.0,1434.0,512.5,-793.0,-232.5,4
-970.0,86.75,1105.0,-35.5,1246.5,628.5,-805.5,-217.25,4
-1261.75,22.75,1012.5,-171.75,928.0,827.75,-446.75,-137.75,4
-1245.75,-4.0,946.25,-352.0,877.75,980.5,206.25,-111.25,4
-544.5,64.5,914.5,-368.5,573.25,887.75,-143.5,-101.25,4
651.0,-6.25,541.0,-220.5,273.0,893.25,-662.0,-227.25,4
831.5,-16.5,-59.75,-94.0,-177.75,1029.25,-898.0,-296.0,4
681.75,-46.5,-1011.5,-115.25,117.25,1029.25,-967.5,-216.75,4
-62.75,-106.25,-836.75,-80.5,280.0,1036.75,-771.75,-316.25,4
-1121.0,6.0,-1172.5,-16.5,193.75,1101.5,-816.75,-444.5,4
-1069.0,188.5,-943.25,57.25,264.5,1141.5,-990.0,-546.0,4
-1120.75,100.0,-136.5,88.0,150.0,965.25,-969.0,-591.5,4
-1170.0,122.5,-171.0,16.25,392.5,551.0,-869.75,-464.0,4
-1183.25,489.25,-183.0,24.75,300.0,336.5,-421.5,-324.5,4
-90.25,678.75,1.75,-136.0,-463.75,147.25,0.5,-84.25,4
389.75,682.0,432.5,-347.0,-1268.75,-119.0,323.0,77.5,4
277.0,576.5,437.0,-535.25,-2219.75,-207.25,551.25,38.75,4
353.0,440.0,441.5,-596.75,-2801.5,-271.75,458.25,-104.75,4
392.75,238.75,536.5,-490.5,-2600.75,-328.0,279.5,-270.75,4
119.25,99.0,701.0,-466.0,-1827.5,-139.0,110.25,-339.75,4
-1395.75,-11.75,809.5,-410.25,-1652.25,-2.25,-302.25,-364.5,4
-1358.75,-159.5,-724.0,-435.0,-1165.25,127.5,-590.5,-380.5,4
-1291.5,-353.25,-883.0,-404.75,-461.75,414.75,-1334.5,-342.75,4
-425.5,-304.5,-645.25,-114.75,-617.25,572.75,-1862.25,-425.5,4
783.75,-243.0,-478.25,29.75,-708.0,575.0,-1992.75,-466.75,4
802.75,-252.5,-408.25,100.75,-791.0,547.0,-2078.75,-358.25,4
1000.5,-182.0,-482.5,72.0,-1651.5,679.75,-2108.25,-169.0,4
1193.5,-96.25,-579.0,-47.25,-808.25,891.5,-2058.75,-93.5,4
1342.5,29.25,1448.0,62.5,-395.0,1058.75,-1420.0,-56.5,4
1468.5,103.75,1394.0,14.75,-426.0,1260.5,-1269.5,-42.75,4
1119.0,47.5,1371.0,-18.25,405.75,1350.0,-1169.25,-62.25,4
-511.75,-131.75,1433.75,88.25,1412.75,1353.75,-1233.0,-119.5,4
-465.0,-217.0,1323.0,207.25,2743.5,1385.25,-1029.25,-108.75,4
-343.75,-153.5,1125.75,177.25,2619.5,1527.25,-1139.5,53.5,4
-278.0,-42.0,948.0,161.0,1663.75,1673.25,-1129.25,134.25,4
-277.5,-97.75,892.5,154.5,1586.0,1806.75,-622.5,419.5,4
-240.5,-427.25,885.75,140.0,2235.5,1901.75,-572.25,721.75,4
-264.0,-816.0,791.5,226.75,2682.75,1837.75,-395.25,629.25,4
-435.25,-1173.25,-302.75,301.0,3099.25,1708.75,-250.0,644.75,4
-473.0,-935.25,-1203.75,501.0,3056.5,1544.0,-358.75,538.75,4
-502.75,-514.0,-1044.75,603.5,2894.75,1781.25,-321.75,131.5,4
217.0,-584.75,-669.25,772.75,2834.25,2387.0,-484.0,98.75,4
1372.25,-814.5,-370.25,777.5,2831.75,2217.25,-366.0,18.25,4
1337.0,-756.5,-468.0,635.5,2938.5,1886.5,-42.75,-198.75,4
1387.75,-414.25,-702.25,631.25,2103.0,1549.0,163.75,-215.25,4
1194.0,-263.25,-870.75,324.75,813.25,1092.0,442.75,-145.25,4
-890.0,105.25,-1327.75,-19.25,443.5,807.5,205.0,-313.0,4
-693.75,78.5,-1045.5,163.75,-216.25,500.25,-739.75,-806.5,4
-469.5,-229.75,-628.75,422.75,-1256.0,-209.5,-531.0,-1045.25,4
-919.5,-96.75,-538.5,424.5,-794.25,-1171.25,280.0,-932.75,4
-1080.75,-11.75,-605.75,295.0,-1040.75,-1506.5,266.0,-1014.0,4
-704.75,-65.75,-611.0,192.0,-1623.25,-1740.0,259.0,-920.75,4
157.25,-310.5,-713.75,83.0,-3061.0,-1890.0,500.5,-853.75,4
677.0,-385.75,-820.5,55.25,-3963.25,-1977.5,531.0,-806.0,4
648.0,-38.25,-268.0,-62.5,-3934.5,-2156.0,124.25,-691.75,4
626.25,202.0,1095.5,-145.75,-3809.25,-2249.0,-413.25,-350.75,4
598.25,387.0,1053.0,-164.75,-3787.0,-2402.5,-253.0,608.75,4
-458.25,676.5,992.75,-109.25,-2737.5,-2474.0,-132.0,1368.0,4
-1259.25,738.25,957.25,-24.5,-1670.25,-2445.0,18.0,1414.5,4
-911.25,685.0,845.5,-112.75,-539.5,-2303.5,155.5,1391.75,4
236.0,616.5,777.0,34.5,108.75,-1995.75,320.5,1338.0,4
592.75,646.5,732.75,279.75,-317.75,-1731.75,397.25,1217.0,4
638.0,551.5,698.5,290.75,-1149.25,-1378.75,1015.0,1091.5,4
689.75,281.25,598.25,350.25,-1443.5,-1099.5,1911.5,915.75,4
743.75,161.0,282.5,339.75,-1387.75,-909.25,1832.0,746.25,4
719.75,93.5,-948.0,122.5,-1170.25,-920.25,1665.5,633.0,4
-23.0,389.0,-1432.75,-281.5,-1983.75,-831.0,1421.5,315.25,4
-958.0,757.75,-1414.75,-720.5,-1394.75,-802.25,1237.5,445.25,4
-1111.5,972.0,-1396.0,-699.5,-1137.75,-882.0,1127.0,97.75,4
-1052.0,1203.5,-1400.75,-348.5,-1066.0,-1058.5,1269.25,-291.5,4
-1026.0,1052.25,-1454.75,-7.25,-1002.0,-1087.0,1692.25,-466.0,4
-1033.0,674.75,-1419.5,274.75,-946.0,-1075.75,1798.0,-653.5,4
-1047.0,66.0,-1415.75,242.0,-959.0,-939.25,1245.0,-692.5,4
-1050.5,-647.5,-1420.25,29.0,-931.75,-587.0,355.75,-604.75,4
-1034.25,-685.5,-397.25,-372.25,-1039.75,-334.25,-311.0,55.5,4
-972.75,-478.5,28.75,-931.0,-850.5,38.75,-513.75,170.25,4
-934.25,-529.5,-16.5,-1092.25,-517.5,329.75,-383.5,135.25,4
-862.75,-296.75,-102.25,-1076.5,-681.0,476.25,-440.5,227.25,4
1244.0,0.75,-317.0,-1054.5,-1621.5,580.0,-665.5,416.0,4
1229.75,130.0,-359.75,-710.75,-3005.25,703.75,-566.0,623.25,4
1094.0,-3.25,-518.5,-386.25,-3332.0,913.0,-50.5,752.0,4
1033.75,-148.5,-654.0,-323.0,-3261.0,1092.0,917.5,863.25,4
811.25,184.0,-606.5,-371.5,-3281.25,1095.5,1352.75,906.25,4
211.0,597.5,-378.25,-140.5,-3239.5,1035.0,1182.25,-348.75,4
-150.5,754.75,-44.75,-25.5,-2620.5,998.75,943.0,-663.25,4
-560.25,796.0,60.75,-25.0,-738.0,1085.25,199.75,-39.5,4
-126.25,479.0,147.0,-72.25,905.25,1296.25,551.25,225.25,4
590.0,44.5,175.0,-315.0,1200.0,1483.75,977.25,32.5,4
616.5,-270.75,268.5,-483.5,1561.25,1319.25,759.0,402.0,4
674.75,-551.5,282.75,-735.25,1737.75,1062.75,562.0,1089.75,4
575.25,-557.25,219.5,-790.75,275.75,1011.75,-738.25,759.5,4
114.75,-502.5,272.0,-639.75,0.0,1032.0,-643.5,282.0,4
-352.25,-263.0,237.25,-486.75,0.0,977.5,-193.5,268.25,4
-770.0,-35.0,258.5,-97.25,-95.25,1070.25,213.0,-262.5,4
-674.0,69.75,217.75,431.0,-85.25,1122.0,455.75,-687.75,4
-656.0,32.75,92.25,585.5,2210.75,1052.25,860.75,-740.0,4
-366.0,21.0,88.0,528.75,2526.75,894.5,2041.5,-775.0,4
72.5,29.0,171.0,490.25,2877.25,754.75,2258.25,-867.25,4
246.75,-55.75,122.0,292.25,3070.25,518.25,2274.0,-1031.25,4
507.5,-183.25,29.5,263.5,2303.0,231.75,1990.0,-1238.25,4
618.0,-267.25,82.0,521.25,1498.75,-14.0,1683.75,-1478.5,4
637.75,-129.5,326.25,747.0,1466.0,158.0,1407.0,-1523.25,4
585.25,-387.75,904.5,1010.5,1430.5,592.25,337.75,-1463.75,4
578.5,-582.75,956.75,1002.5,1261.5,588.25,-577.5,-1367.0,4
366.0,-602.25,826.25,794.0,1275.5,443.5,-741.5,-1278.75,4
94.0,-583.75,852.0,806.5,880.25,351.25,-754.5,-1104.0,4
-4.25,-421.5,741.5,751.0,-52.75,140.25,-266.5,-969.25,4
-74.5,-316.25,625.0,502.5,-1022.5,116.25,137.0,-855.25,4
-168.5,-457.25,563.5,320.0,-1363.5,74.0,641.75,-745.25,4
-214.25,-377.0,454.5,201.25,-1348.0,87.0,748.25,-647.25,4
-179.75,-216.5,486.25,328.75,-822.5,131.5,691.5,-549.75,4
-116.0,-25.75,306.5,269.5,351.75,124.75,934.75,-480.75,4
8.5,120.25,220.25,131.25,1020.75,-7.5,789.0,-404.25,4
16.5,133.25,165.25,166.0,1560.0,-312.75,630.25,-383.0,4
-47.25,26.75,120.0,138.75,1742.5,-744.5,514.5,-378.25,4
-54.0,94.5,33.5,87.5,696.75,-1105.5,767.0,-338.75,4
-7.25,180.0,-26.25,115.25,415.5,-1154.75,1046.75,-300.0,4
-9.0,220.25,-33.0,281.0,771.0,-1144.0,1172.5,-57.5,4
-61.25,177.5,-23.25,459.25,1129.25,-1090.0,1188.25,122.0,4
-131.25,30.0,-20.5,468.0,1241.25,-1194.25,1203.75,232.5,4
-174.5,186.5,-72.5,483.75,1684.25,-1293.25,917.25,394.0,4
-111.75,291.5,-73.75,183.25,1902.75,-1241.75,783.0,428.75,4
-143.75,129.75,-116.0,-344.0,1194.0,-892.25,611.0,459.25,4
-151.75,114.0,-106.25,-629.5,868.25,-515.5,361.0,581.0,4
-65.75,283.0,-140.25,-735.25,1079.5,-364.25,135.75,807.0,4
-49.25,186.75,-209.0,-743.25,1872.5,-96.0,-37.5,828.0,4
-20.5,195.5,-257.75,-685.0,2352.5,96.75,-296.25,619.5,4
-6.0,355.75,-320.5,-568.75,2829.25,416.25,-600.75,262.25,4
-12.5,214.5,-330.0,-513.75,2965.75,545.75,-708.25,0.75,4
37.25,100.25,-318.75,-442.5,3055.5,378.0,-810.0,1.0,4
81.75,50.0,-287.0,-352.25,2785.5,354.0,-1083.5,201.25,4
60.75,-32.0,-244.5,-366.75,2371.75,423.5,-1200.25,661.5,4
20.5,-75.5,-174.5,-305.25,1778.5,611.5,-1187.25,628.0,4
65.0,188.25,-109.25,-202.5,282.25,724.25,-1342.5,112.75,4
198.5,206.25,-131.0,-158.75,-744.0,649.25,-1399.0,-297.5,4
196.5,-111.0,-159.25,-89.5,-674.0,489.75,-1242.25,-332.75,4
133.25,-188.25,-230.0,-16.5,-311.25,97.5,-1176.25,-140.75,4
80.75,-228.25,-264.25,122.25,-510.25,-379.25,-1138.25,270.5,4
69.5,-250.0,-243.5,184.25,-801.25,-641.5,-1135.25,258.75,4
99.0,-194.75,-273.5,112.25,-814.25,-705.75,-1124.0,242.5,4
45.5,-118.75,-233.25,79.5,-1233.75,-619.5,-1080.5,225.5,4
18.75,-287.75,-150.5,33.0,-1700.75,-556.25,-1086.25,279.0,4
58.0,52.0,-131.0,-192.25,-1827.5,-490.25,-1049.75,338.0,4
180.25,690.5,-135.0,-361.0,-1760.75,-333.5,-1068.75,401.0,4
202.25,937.75,-146.0,-412.5,-1515.25,-239.5,-1260.25,477.0,4
136.0,1201.5,-160.75,-450.0,-41.0,-251.75,-1389.0,519.0,4
130.25,1037.5,-207.75,-487.5,-35.25,-271.5,-1233.75,583.25,4
140.0,863.5,-261.5,-521.5,-30.25,-204.75,-1012.5,671.25,4
187.5,760.0,-256.5,-341.0,-3.0,-173.5,-808.25,725.25,4
216.75,45.75,-149.5,34.25,64.25,-242.5,-687.75,363.0,4
219.5,-490.25,-60.25,232.25,-1211.25,-264.5,-467.75,22.25,4
165.25,-675.0,-10.0,373.25,-1335.25,-347.25,-133.25,-420.5,4
129.5,-1213.0,65.5,379.5,-1366.5,-446.0,-96.5,-899.5,4
117.5,-1470.5,99.0,300.25,-1510.25,-571.5,-166.0,-1299.25,4
96.0,-1218.25,124.75,-33.75,-980.75,-590.25,-256.25,-1358.0,4
133.0,-850.25,136.5,-541.75,84.75,-593.5,-217.25,-1326.5,4
129.5,-547.75,124.5,-683.75,620.0,-604.5,-114.75,-1112.25,4
129.25,-445.75,90.0,-663.0,1453.0,-509.5,-110.25,-1121.5,4
162.25,-192.0,59.0,-337.75,1701.25,-401.5,-29.5,-1126.5,4
133.25,83.25,72.0,-70.5,1197.25,-270.25,19.5,-953.0,4
119.0,149.5,115.75,-336.25,734.0,-86.5,74.25,-891.5,4
69.75,63.5,69.75,-463.75,345.5,80.0,10.75,-1226.75,4
11.25,-27.0,13.25,-413.0,-32.5,195.25,-56.5,-1561.5,4
-13.25,89.5,9.75,-500.0,-361.5,364.25,48.75,-1548.75,4
-10.5,123.75,-50.0,-470.25,-608.5,546.25,119.25,-1573.75,4
17.0,122.0,-53.5,-454.5,-825.75,684.75,79.75,-1444.25,4
10.25,156.25,-73.5,-427.25,-945.25,764.75,14.25,-1141.0,4
-7.5,43.5,-68.25,-315.5,-912.75,662.75,-25.5,-562.75,4
-78.25,-279.5,-52.75,-226.0,-1081.5,469.5,-1.75,98.75,4
-158.25,-230.0,-266.25,-265.0,-1282.5,232.0,173.75,754.0,4
-261.5,107.0,-473.0,-241.0,-1182.75,210.0,83.5,1110.5,4
-260.5,541.5,-489.0,-242.5,-1064.0,267.75,-129.25,1048.25,4
-124.5,1045.75,-495.25,-468.0,-957.0,327.5,-115.5,1069.75,4
-180.0,1469.75,-405.75,-378.5,-1197.75,395.5,-150.5,1041.25,4
-511.0,1408.0,-186.75,-253.5,-1606.0,527.5,-364.0,1037.25,4
-733.0,890.0,24.0,-228.25,-1743.75,648.5,-860.75,1036.0,4
-766.25,162.0,174.5,38.5,-1880.5,691.5,-1345.0,904.75,4
-532.0,-451.5,159.25,193.0,-1753.75,652.25,-1553.75,625.5,4
73.75,-779.25,151.0,538.25,-1461.75,826.75,-1508.5,4.5,4
787.75,-978.0,733.25,1254.5,-1181.75,1464.25,-1721.75,-132.5,4
769.0,-1233.0,947.75,1212.25,-992.5,1422.25,-2116.25,-30.75,4
489.25,-954.5,790.0,1183.25,-1105.0,1015.5,-2105.25,123.0,4
333.75,-173.5,782.5,1174.25,-1396.0,1018.25,-2099.0,257.5,4
73.0,79.0,768.25,1029.75,-1758.0,766.75,-2058.0,489.0,4
-4.5,510.0,551.25,827.75,-1840.25,644.5,-1834.25,566.25,4
-35.5,581.5,547.25,764.25,-1982.5,451.0,-1838.0,837.5,4
-77.75,616.25,292.75,752.25,-1898.0,282.75,-1807.0,901.75,4
-72.0,293.5,345.25,849.5,-1697.0,189.25,-1310.5,1045.0,4
-114.25,-297.5,236.0,623.5,-1675.75,-66.0,-764.0,1211.75,4
-196.5,-753.75,160.0,562.0,-1610.0,-104.5,-609.75,1406.0,4
-248.5,-976.0,56.0,373.25,-1638.75,-150.75,-515.0,1692.5,4
-261.25,-966.0,-21.75,186.0,-1520.75,-90.5,-695.0,1914.25,4
-206.0,-820.75,-50.5,104.0,-1329.0,-100.5,-1035.25,1825.5,4
-64.75,-145.25,-146.5,-60.5,-1179.0,-104.25,-1273.0,1490.75,4
9.75,587.25,-156.25,-205.25,-1093.5,-145.75,-1712.75,1288.5,4
29.75,528.5,-207.75,-438.25,-919.75,-247.5,-1869.25,980.25,4
-27.5,36.25,-165.5,-369.5,-725.0,-333.25,-1316.5,275.75,4
-71.25,-74.5,-144.5,-227.25,121.75,-307.5,-284.0,-148.0,4
-106.0,-105.75,-94.75,-35.5,1012.5,-209.25,284.5,-179.75,4
-175.75,-270.0,-97.25,134.0,1621.75,-275.75,772.5,-511.5,4
-152.25,142.5,-84.75,258.0,2383.25,-426.75,1471.75,-1470.25,4
29.25,778.5,-72.25,166.25,2626.0,-730.5,1762.75,-1896.75,4
16.5,579.75,-85.75,-10.25,2581.5,-1006.5,1651.75,-1970.75,4
-154.0,18.5,-47.25,21.5,2559.75,-949.5,1192.25,-1983.25,4
-145.5,-310.25,-42.25,-192.5,2511.25,-724.5,1069.5,-84.5,4
-119.0,-590.5,-51.5,-282.25,2364.25,-687.75,1441.0,-2087.75,4
-36.5,-752.25,-97.75,-270.0,1974.75,-526.0,1893.75,-2120.5,4
-24.0,-571.25,-94.5,-481.75,1578.75,-341.25,2086.0,-2089.0,4
-97.25,33.25,-127.5,-749.0,872.75,-331.75,1715.75,-53.25,4
-163.25,862.5,-207.75,-959.75,359.0,-267.75,1736.5,-34.0,4
-193.75,714.25,-253.5,-810.25,104.0,-207.75,1668.5,-35.75,4
-11.25,835.75,-272.5,-498.25,372.0,-115.5,1140.0,-68.75,4
136.75,1027.5,-244.75,-153.0,1211.75,25.0,761.5,-80.75,4
140.5,209.0,-252.0,-48.5,1578.25,126.75,475.5,-43.25,4
73.25,-220.0,-311.25,325.5,1048.75,150.25,868.5,-6.5,4
52.25,-500.25,-339.5,789.25,690.0,131.0,1408.25,-40.0,4
94.0,-681.0,-307.25,697.5,183.5,61.25,1110.0,-0.75,4
79.75,-427.0,-283.0,521.75,-316.0,-147.5,884.25,-289.25,4
70.75,-147.5,-232.25,194.5,-60.75,-374.25,901.75,-1536.25,4
150.25,651.25,-205.5,-500.25,28.25,-789.75,657.75,-1807.25,4
135.0,586.0,-214.75,-719.0,117.75,-1062.25,489.25,-1736.75,4
101.0,372.5,-152.5,-1099.25,328.25,-812.75,400.25,-1574.75,4
93.5,704.0,-224.0,-1361.75,84.25,-474.75,390.5,-1347.25,4
99.5,739.5,-288.0,-1312.25,350.5,-161.75,383.0,-1272.25,4
180.5,378.25,-279.0,-1341.75,478.25,-141.0,272.25,-1137.5,4
183.0,525.5,-286.0,-1026.0,666.5,-277.0,247.25,-1081.25,4
138.75,391.0,-211.25,-874.5,457.5,-213.0,197.0,-1038.0,4
46.25,-660.75,-158.0,-686.5,334.5,-10.75,218.0,-940.25,4
77.75,-419.25,-154.0,-599.25,579.25,323.75,203.0,-849.0,4
47.5,-84.5,-94.75,-482.75,698.0,705.0,-802.5,-648.25,4
-71.75,-600.25,15.75,-118.5,960.0,711.75,-1501.5,-349.75,4
-153.25,-454.0,98.75,-13.5,713.25,606.5,-1758.5,-199.75,4
-262.75,-27.0,176.5,-13.0,868.0,665.5,-1375.0,32.5,4
-288.25,81.0,211.5,-3.5,1050.75,638.25,-607.25,-28.25,4
-377.5,-13.75,301.0,103.0,1012.25,607.5,132.75,-106.0,4
-412.75,158.5,418.5,184.0,1088.0,555.25,269.5,31.5,4
-455.75,250.5,516.25,376.75,984.75,633.25,317.25,285.5,4
-568.5,-223.5,567.5,517.5,907.75,820.75,311.5,561.5,4
-588.75,-352.75,563.25,614.25,775.25,1105.5,578.25,739.0,4
-511.25,-78.75,582.75,729.5,642.0,1263.25,661.75,911.25,4
-451.0,241.25,556.5,659.0,434.5,1155.75,681.0,864.75,4
-380.25,313.0,519.75,604.5,339.0,964.0,374.0,857.5,4
-317.0,188.5,494.25,661.75,434.75,636.75,283.75,862.0,4
-363.5,-94.75,437.0,750.75,467.5,381.75,280.0,932.25,4
-330.0,-666.5,367.5,586.0,751.0,41.75,261.0,1029.75,4
-132.0,-827.0,305.5,534.25,1076.5,-516.5,254.0,1114.75,4
-3.5,-655.0,274.0,494.25,1465.0,-920.25,216.25,1235.75,4
200.75,-525.75,203.25,339.75,2059.75,-1106.0,180.25,1355.0,4
393.0,-343.5,163.5,459.75,2364.5,-1125.25,138.5,1505.0,4
332.5,-232.75,102.0,500.25,2319.75,-1083.75,112.5,1737.5,4
59.5,-62.75,-29.75,351.75,2277.5,-1072.25,1368.75,1949.25,4
-161.5,47.75,-172.5,336.5,2268.25,-1047.75,2092.25,2010.0,4
-41.0,119.75,-173.75,352.25,2262.5,-1027.75,2080.0,2019.5,4
101.5,275.75,-41.75,317.75,2261.75,-1060.25,2050.0,2038.0,4
274.25,303.75,-28.5,237.25,2257.75,-1047.5,1994.75,2019.5,4
590.0,351.5,-3.75,163.0,2257.0,-1027.25,1940.0,1987.0,4
921.75,132.75,12.0,164.0,2247.75,-998.75,1920.75,1922.0,4
1148.5,-60.0,-31.0,110.5,2249.0,-979.75,1911.75,1871.75,4
1221.5,183.25,-101.75,49.25,2218.75,-953.5,1906.25,1583.5,4
1249.25,-39.0,-109.25,25.75,2205.25,-953.25,1840.0,1093.5,4
1037.5,-349.0,-102.0,-27.25,2196.75,-952.75,1781.5,669.5,4
760.0,-311.75,-149.75,-142.25,2240.0,-909.0,1782.0,301.75,4
455.25,-441.5,-180.5,-209.0,2319.0,-634.5,1777.25,-100.25,4
245.5,-90.75,-293.0,-202.5,2338.5,-209.75,1824.75,-515.25,4
150.25,454.25,-376.0,-316.0,2332.0,124.0,1835.75,-773.5,4
30.5,371.25,-433.0,-268.25,2267.25,293.25,1837.75,-892.25,4
-86.75,176.75,-414.0,-3.0,2215.75,461.75,1897.0,-971.75,4
-77.25,-189.5,-336.5,45.5,2177.75,710.0,1965.25,-1020.0,4
-27.0,-877.25,-371.25,-113.25,2120.0,783.0,1981.75,-1047.75,4
191.5,-946.25,-352.25,-67.0,2035.25,922.75,1953.75,-1015.5,4
506.75,-265.5,-287.25,157.0,1965.0,1027.75,2042.25,-928.75,4
498.5,230.0,-289.5,64.5,1904.5,1067.5,1747.5,-923.5,4
340.0,247.25,-270.25,-44.75,1719.0,1061.75,-83.0,-940.25,4
131.0,-56.75,-248.0,-95.0,1509.75,1117.25,-123.0,-924.75,4
-39.0,31.5,-186.25,-132.75,454.5,1117.5,-102.75,-902.5,4
-127.5,371.75,-89.75,23.5,-769.5,1005.5,-907.25,-812.25,4
-172.0,437.5,-67.5,-39.25,-908.0,952.0,-1785.75,-689.75,4
-169.5,645.0,-51.0,-96.75,-1207.5,921.75,-2104.5,-567.25,4
-334.0,488.5,-29.25,-78.25,-1693.5,850.0,-2192.5,-538.75,4
-437.75,249.0,-7.75,-76.25,-1933.25,713.0,-2281.25,-608.5,4
-421.5,-55.5,50.0,-61.5,-1957.25,513.0,-2287.75,-489.0,4
-466.25,-121.5,100.0,-68.0,-2067.75,410.5,-2229.5,-411.5,4
-610.25,-249.75,160.5,-2.5,-2280.25,322.25,-2148.75,-483.25,4
-722.25,-796.75,173.5,10.5,-2493.5,274.25,-1849.0,-562.75,4
-705.75,-572.25,185.0,-61.25,-2535.25,284.0,-1666.25,-694.75,4
-744.0,60.25,195.5,-191.0,-2572.25,444.5,-1782.75,-867.75,4
-688.75,635.5,179.5,-146.25,-2583.5,521.0,-2075.0,-1016.0,4
-581.0,596.25,171.25,-140.5,-2612.75,452.5,-2005.25,-1173.0,4
-571.0,292.25,111.75,-99.0,-2608.25,381.25,-1964.0,-1273.0,4
-560.25,-77.5,62.75,15.75,-2539.5,356.75,-1925.75,-1397.75,4
-471.25,-421.75,44.25,61.75,-2466.25,355.75,-1907.5,-1525.75,4
-311.75,-201.25,17.5,51.5,-2384.75,340.75,-1843.5,-1560.75,4
-85.0,-166.75,25.25,4.75,-2307.75,331.75,-1589.0,-1582.5,4
27.25,91.25,17.0,86.5,-2230.75,353.5,-1541.25,-1545.75,4
6.25,358.25,-1.75,-16.5,-2151.75,395.5,-1489.0,-1505.75,4
46.0,258.25,-6.0,-65.75,-2098.0,375.0,-1757.5,-1433.75,4
4.5,78.25,-4.5,-91.25,-2069.5,349.25,-1477.25,-1379.75,4
-59.0,67.75,38.0,-121.0,-2111.75,376.75,-1453.25,-1356.5,4
-92.25,156.75,51.0,-139.75,-2108.5,356.75,-1397.25,-1269.0,4
-84.0,72.75,63.25,-219.5,-1960.0,256.0,-1427.75,-1167.25,4
-13.0,72.5,86.5,-171.75,-855.75,131.0,-1319.25,-535.75,4
38.25,64.5,89.25,-147.0,-222.75,30.75,-1312.75,446.75,4
75.0,92.5,89.0,-85.25,136.25,-60.25,-1421.0,1168.25,4
42.0,22.5,58.5,-74.25,154.25,-111.75,-1454.5,1138.25,4
-0.5,91.25,31.5,-92.5,394.25,-46.25,-1602.5,1107.25,4
-21.75,73.25,25.5,-93.25,936.75,4.0,-1550.75,993.25,4
-19.5,44.25,22.25,-81.5,1324.25,-47.25,-1287.25,940.75,4
-27.5,-19.25,-1.25,-73.75,1600.5,-133.0,-985.75,886.75,4
-16.5,-199.5,-8.75,-65.75,1517.0,-247.25,-1335.25,838.0,4
48.75,-58.75,-13.75,-34.0,1381.5,-312.0,-2221.25,785.5,4
124.0,-36.0,-27.5,-30.5,1186.5,-314.5,-2201.25,787.75,4
188.75,89.25,-53.25,-5.5,893.75,-358.5,-2152.5,838.5,4
175.5,-79.75,-102.75,-33.5,636.75,-384.0,-2113.75,819.0,4
117.5,-215.0,-127.5,-48.0,210.0,-394.5,-2108.75,814.0,4
90.5,107.5,-142.0,-45.75,-226.0,-360.75,-2138.0,720.25,4
-3.5,-41.25,-167.25,-27.5,-270.5,-279.0,-2166.25,356.5,4
-176.5,-387.25,-148.0,-12.5,-441.25,-202.0,-2170.5,85.25,4
-177.75,-252.0,-129.0,-27.75,-420.0,-126.0,-2021.0,6.75,4
-126.75,-164.25,-134.5,-9.75,-221.75,7.75,-1729.75,-135.5,4
-24.5,-190.0,-70.25,-28.75,-204.0,191.25,-1513.25,-307.25,4
43.75,29.5,-31.75,-49.75,59.25,259.0,-1301.25,-185.0,4
16.0,123.5,-68.25,-38.5,57.75,282.75,-1009.0,208.75,4
54.5,54.5,-175.25,-44.5,6.75,280.5,-868.25,539.25,4
68.5,9.0,-266.5,-43.75,183.0,293.0,-729.75,944.75,4
103.0,151.0,-166.0,-50.0,209.5,286.0,-116.25,1350.5,4
47.0,100.5,-42.5,-55.75,193.75,249.25,842.25,1388.5,4
-14.5,37.75,62.75,-53.25,149.0,183.0,1468.75,1412.0,4
-103.75,54.25,175.0,-67.75,91.0,-26.75,1705.25,1430.25,4
-177.75,65.25,186.25,-68.5,79.5,-313.25,1476.0,1434.75,4
-300.0,63.0,165.25,-49.0,115.25,-466.5,1860.25,1472.5,4
-359.25,-12.75,140.0,-38.25,210.25,-416.0,2018.75,1447.25,4
-264.75,-45.75,112.25,-68.25,-262.25,-585.75,2011.25,1305.0,4
-158.0,-96.75,50.75,-100.25,-1031.5,-707.0,1985.25,1161.25,4
132.25,-23.5,-45.75,-120.75,-970.0,-701.25,1994.0,954.0,4
405.0,-19.0,-115.75,-139.75,-346.5,-773.5,1979.5,542.25,4
695.5,14.25,-172.5,-142.5,69.0,-818.75,1969.5,-33.5,4
898.25,30.75,-251.5,-119.75,228.75,-964.5,1992.25,-306.0,4
967.75,-69.0,-364.5,-40.0,339.75,-847.5,2034.0,-683.5,4
849.75,-288.25,-435.75,109.5,255.5,-645.25,2131.5,-1226.0,4
670.25,-57.5,-389.25,390.75,514.0,-203.25,2341.0,-1790.5,4
170.75,100.0,-25.0,801.25,1137.25,448.5,2602.0,-1929.0,4
-619.25,-184.25,340.25,804.25,1297.5,426.25,2592.75,-1948.25,4
-502.75,322.25,225.5,674.75,462.0,170.0,2467.5,-2025.0,4
-287.25,332.0,209.5,629.5,-405.0,52.0,2467.25,-1879.75,4
-505.0,178.5,225.25,450.5,-1128.25,-191.5,2376.5,-1777.75,4
-341.25,305.5,102.25,263.25,-1307.0,-264.0,2360.0,-1816.25,4
-444.5,63.5,127.5,164.25,-781.75,-244.75,2342.5,-1703.25,4
-350.75,-58.25,15.5,-24.5,-4.25,-296.5,2291.0,-1708.25,4
-313.75,78.5,-27.5,-121.0,781.0,-374.75,2178.0,-1660.25,4
-331.0,332.5,-75.25,-225.25,1008.5,-484.0,1604.5,-944.75,4
-350.5,87.5,-55.25,-205.5,936.75,-571.25,100.5,364.5,4
-422.5,-44.75,-23.75,-262.75,819.0,-490.5,-1278.0,481.25,4
-272.75,-119.5,-66.0,-351.5,1102.0,-226.25,-1665.25,522.5,4
-211.75,51.5,-56.75,-358.0,1244.5,-158.5,-1927.75,509.75,4
-106.5,238.75,-102.25,-362.0,1084.25,-277.0,-1948.75,470.5,4
-127.0,135.5,-100.25,-350.5,745.5,-494.5,-1939.75,473.5,4
6.0,152.25,-98.75,-347.75,608.75,-674.75,-1924.0,282.0,4
61.25,-132.0,-36.5,-81.75,1100.5,-677.25,-1911.25,41.5,4
1.25,-175.0,40.25,78.25,1170.25,-477.75,-1951.75,57.75,4
206.5,-35.5,12.25,-137.5,368.0,-366.0,-2048.0,198.75,4
333.75,-12.5,-27.0,-285.5,42.25,-192.0,-2119.0,289.75,4
415.5,-170.0,-36.75,-464.75,-80.0,-265.5,-2145.25,483.25,4
523.25,-202.75,-85.75,-577.25,-69.25,-347.5,-2176.75,578.25,4
702.75,337.5,-220.0,-666.0,-116.5,-519.0,-2282.0,590.25,4
841.5,768.0,-290.75,-625.75,-223.5,-508.25,-2341.5,554.0,4
591.25,643.0,-203.25,-564.0,-207.25,-320.0,-2169.25,295.25,4
261.0,331.25,-60.0,-629.0,-180.0,-102.75,-1993.5,-1200.0,4
-95.5,-65.5,52.75,-596.25,92.75,334.5,-1997.0,-1542.0,4
-498.5,-630.0,175.75,-409.5,53.5,741.0,-2001.25,-1608.5,4
-677.75,-559.25,270.5,-291.5,6.75,1073.25,-1913.0,-1761.25,4
-826.0,-324.0,310.75,-251.75,-264.0,1384.0,-1908.5,-1917.0,4
-877.25,-63.5,349.0,-213.75,-506.25,1636.5,-1934.25,-2051.75,4
-796.75,177.25,325.25,-130.0,-758.5,1725.5,-1878.0,-2139.75,4
-768.5,-58.5,310.25,108.0,-1187.25,1695.25,-1695.0,-2129.0,4
-565.75,97.0,344.5,279.5,-1328.25,1907.75,-1478.75,-1982.5,4
-256.75,87.0,314.25,288.5,-1347.25,2228.0,-1464.5,-1813.5,4
-74.0,-25.25,243.25,253.0,-1265.25,2200.75,-1417.0,-1585.75,4
121.5,38.75,174.0,228.25,-968.0,2177.0,-1250.75,-985.0,4
244.0,10.0,99.25,230.25,-562.0,2159.25,-1187.5,-364.0,4
299.5,59.25,103.25,265.25,-69.0,2178.25,-1182.75,324.75,4
173.25,-258.0,145.75,434.0,726.0,2502.25,-1164.25,641.5,4
-368.0,-727.75,108.75,805.0,909.0,2632.75,-1136.5,392.0,4
-499.5,-644.75,-33.25,767.75,751.75,2375.75,-297.25,583.0,4
-303.25,-483.5,-45.25,587.25,450.25,2005.75,430.25,866.0,4
-261.25,-563.75,24.75,693.25,331.0,1714.0,895.75,928.0,4
-115.5,-286.75,3.25,510.25,81.0,1383.5,884.25,1276.5,4
-25.25,-235.25,-3.25,270.25,-400.75,1266.75,864.75,1336.75,4
10.25,72.5,-64.25,331.75,-726.5,910.75,883.0,1516.5,4
171.25,260.0,-69.25,130.5,-864.75,469.75,928.75,1676.75,4
120.5,105.25,-65.75,-26.0,-856.75,48.25,961.5,1778.75,4
225.5,153.0,-95.75,-50.25,-450.25,-327.75,938.5,1969.0,4
209.75,212.0,-84.5,354.0,-246.0,-885.25,937.25,1960.25,4
179.75,225.25,-67.5,356.75,-281.25,-1057.0,865.5,2037.5,4
235.75,22.25,-129.5,131.5,-301.0,-1153.25,865.75,2017.5,4
278.5,-142.25,-207.75,-114.0,-715.0,-1297.0,955.25,2014.75,4
343.0,160.75,-178.5,-316.0,-1221.5,-1066.25,1023.75,1982.75,4
334.75,313.5,-152.0,-84.5,-1749.75,-1252.25,1081.75,2022.5,4
247.25,-8.75,-97.75,13.25,-2318.0,-1624.5,1148.25,2049.25,4
143.75,-17.0,-94.5,-99.75,-2543.75,-1754.75,1218.75,2067.75,4
134.25,-29.75,-73.25,-133.75,-2614.0,-1833.75,1231.75,2050.25,4
179.25,21.5,-36.0,-160.75,-2379.0,-1859.75,1205.0,1955.0,4
236.25,32.0,-36.75,-179.0,-1940.25,-1851.5,1140.0,1822.5,4
240.0,146.0,-54.75,-181.5,-1300.0,-1749.75,1095.25,1670.0,4
252.25,182.75,-121.0,-293.25,-481.25,-1530.25,1075.25,1644.75,4
212.5,117.75,-142.25,-246.5,161.25,-1309.75,1102.75,1617.75,4
199.5,200.5,-147.0,-219.75,147.75,-1219.25,1117.0,1577.5,4
162.5,77.75,-156.0,-235.25,25.75,-1090.0,1038.75,1323.25,4
114.25,176.5,-197.25,-198.0,-80.25,-1023.5,-191.25,1024.25,4
108.25,65.25,-212.0,-260.25,-158.5,-901.0,-907.5,564.0,4
82.0,-127.25,-198.0,-326.75,-231.75,-907.75,-932.5,-101.5,4
96.5,-82.5,-163.75,-342.0,-229.75,-902.0,-953.75,-418.0,4
115.25,185.25,-62.75,-159.75,-161.0,-796.75,-971.5,-465.0,4
85.5,99.5,0.0,-77.25,-20.0,-749.25,-939.25,-434.0,4
40.0,-59.75,-25.25,-105.25,104.0,-723.5,-295.75,-385.5,4
76.75,212.5,-31.0,-42.25,130.0,-669.75,217.0,-401.25,4
13.25,142.25,-53.25,-165.75,335.0,-584.5,535.0,-474.75,4
-52.0,-34.5,-96.0,-256.0,307.25,-551.75,632.25,-470.25,4
-79.0,-63.0,-56.5,-210.25,185.25,-533.25,551.75,-483.5,4
-126.25,137.0,-53.75,3.25,75.75,-522.75,483.25,-533.5,4
-165.0,26.25,-30.5,242.75,68.25,-407.0,380.0,-579.75,4
-239.25,-129.5,9.0,67.5,141.5,-267.0,151.0,-624.25,4
-218.0,46.5,15.75,-35.25,541.0,-109.5,-238.0,-642.0,4
-141.5,22.0,51.75,41.0,1147.0,-16.25,-682.0,-614.5,4
5.75,51.5,74.75,-7.75,1832.0,-54.25,-991.25,-608.5,4
160.5,92.25,20.5,-109.25,1978.0,7.25,-1123.25,-682.75,4
150.25,-47.75,0.75,-141.25,1936.5,99.25,-1165.5,-464.5,4
150.25,-92.75,22.0,-58.5,1903.25,40.5,-1209.5,599.75,4
199.75,119.5,-9.25,-79.75,1668.5,-7.25,-1329.0,1158.25,4
188.25,-64.0,4.0,-236.75,764.0,77.25,-1333.0,1049.5,4
174.0,-467.25,-3.5,-146.0,-30.0,151.25,-1173.0,930.0,4
252.75,-244.25,33.5,235.25,-94.5,307.75,-1014.0,805.5,4
329.25,2.25,113.5,243.5,-55.75,370.5,-630.5,106.5,4
231.0,-24.5,70.0,121.5,473.5,290.5,318.0,-941.5,4
85.25,115.5,18.5,51.5,1339.5,320.25,1263.25,-1526.0,4
0.0,165.25,0.0,-47.5,2090.25,345.5,1502.75,-1611.5,4
-35.75,26.5,-33.0,16.75,2142.75,328.5,1737.25,-1734.25,4
-60.5,34.25,-78.25,-56.0,2130.0,341.25,1913.5,-1265.75,4
-85.5,35.25,-87.25,-35.0,2099.0,415.5,1905.5,-386.25,4
-93.5,49.75,-45.5,35.0,2076.5,586.25,1749.5,144.0,4
-114.25,57.75,-30.25,22.75,2047.75,716.75,1566.0,152.75,4
-130.0,57.75,-24.0,13.0,2034.25,873.75,1330.25,174.0,4
-142.25,32.75,28.5,-40.5,2026.25,1061.0,1169.5,281.0,4
-116.5,-19.0,73.0,-133.75,2027.5,1071.25,1066.25,391.75,4
-106.0,33.0,131.5,-70.25,2061.75,1145.75,-254.25,471.0,4
-137.25,15.75,145.75,63.75,570.5,1287.75,-1195.5,629.25,4
-125.5,-62.25,76.0,17.5,-214.5,1313.0,-1385.25,762.5,4
-82.5,-83.0,20.0,55.25,-1311.25,1303.25,-1470.5,881.5,4
-41.0,30.5,6.75,179.25,-1921.5,1282.5,-1437.0,1057.5,4
-26.25,108.25,-18.25,61.0,-1942.25,1211.75,-1292.25,1177.0,4
-11.75,-19.75,-108.75,-50.0,-1960.0,1110.75,385.25,312.25,4
-49.25,-118.75,-189.75,-85.0,-2007.0,932.25,950.75,-295.75,4
-145.5,-21.25,-227.75,-18.75,-2083.5,770.25,851.0,-478.0,4
-227.75,37.0,-190.25,106.0,-2189.5,638.5,659.25,-867.5,4
-331.5,-73.5,-159.0,-60.25,-2368.75,377.5,502.5,-1036.75,4
-300.75,-78.5,-82.0,-51.25,-2376.75,163.25,485.5,-973.0,4
-168.75,97.75,86.0,-35.75,-2224.25,11.0,601.75,-1043.25,4
-32.25,142.75,196.25,-64.25,-2215.5,-124.0,887.75,-1169.75,4
96.0,-252.75,311.25,-56.0,-2154.0,-138.25,1114.0,-1270.75,4
140.0,-395.75,390.5,-102.25,-1208.25,-163.5,1073.75,-1497.25,4
208.75,-19.0,393.75,16.75,-23.5,-135.0,867.0,-1679.5,4
224.75,150.5,342.0,69.5,25.5,-191.75,664.0,-1626.0,4
156.5,89.5,281.0,80.25,29.0,-297.75,524.0,-1464.0,4
131.0,97.25,213.5,34.5,22.0,-340.25,223.25,-1365.0,4
103.75,125.75,77.0,-132.0,8.5,-420.5,515.75,-1345.25,4
76.0,97.25,-36.5,-156.75,4.5,-395.0,794.5,-1296.75,4
33.75,95.25,-80.0,-69.75,37.5,-320.5,732.25,-1253.25,4
-19.5,26.25,-118.0,30.0,55.25,-200.0,443.75,-1303.75,4
-39.5,-46.0,-244.0,145.75,472.25,-81.0,-279.75,-1334.75,4
-61.75,-60.75,-458.25,74.25,1966.5,-13.0,-1188.5,-1312.25,4
-127.75,-49.25,-469.0,3.25,2045.0,35.75,-1197.0,-1304.0,4
-108.5,-7.25,-330.5,23.0,2041.0,76.0,-1142.0,-1259.0,4
0.75,82.75,-221.25,33.5,2024.0,155.0,-1153.25,-1231.25,4
39.75,171.5,-7.0,41.25,2018.75,211.5,-1174.75,-1209.5,4
-33.5,172.75,163.75,29.25,2010.5,260.0,-1131.25,-1209.0,4
-100.5,53.75,241.0,22.0,2020.25,328.0,-1167.5,-1177.75,4
-147.0,-162.0,247.0,6.0,2027.25,400.75,-1118.0,-1140.5,4
-95.0,-183.0,242.0,80.5,2040.25,425.0,-1013.5,-1075.0,4
-23.25,-76.0,209.5,61.25,2060.25,371.25,-911.5,-902.0,4
-67.5,-46.75,174.0,-20.75,2072.5,299.5,-921.0,-798.0,4
-64.25,8.0,178.5,-45.5,2082.75,315.5,-931.75,-840.0,4
-85.25,-30.75,99.25,-124.0,2090.5,298.0,-750.5,-758.25,4
-155.75,-50.75,-6.25,-56.75,2094.75,303.75,-366.25,-659.75,4
-151.5,5.25,-58.75,199.0,2079.0,280.25,898.75,-616.25,4
-116.25,31.25,-81.5,283.0,2068.0,71.25,1210.0,-510.0,4
-95.75,-28.0,-133.25,141.75,2078.5,-152.5,984.5,-310.75,4
-117.5,-227.25,-164.75,-17.75,2081.5,-328.0,711.75,-176.75,4
-118.75,-158.75,-99.75,-134.0,1765.75,-490.75,612.5,-127.5,4
-70.5,45.5,-2.0,-116.25,1140.0,-537.5,421.25,-190.75,4
-92.0,10.25,23.25,-70.5,654.75,-465.25,239.75,-291.0,4
-74.75,29.25,-15.5,-143.25,101.25,-435.5,128.75,-389.25,4
16.0,54.0,-81.0,-235.5,61.0,-490.5,174.25,-478.25,4
30.5,39.5,-142.75,-128.5,87.75,-509.75,487.0,-465.0,4
-0.25,60.75,-151.75,171.5,147.0,-563.5,1122.75,-350.0,4
-38.25,66.75,-71.75,351.5,184.75,-755.5,1204.25,-189.25,4
-59.0,73.0,-59.25,133.5,227.75,-841.5,1301.0,27.75,4
-55.25,48.5,-115.5,-69.75,-245.25,-674.75,1326.25,218.0,4
-64.0,23.25,-96.5,-51.75,-699.5,-575.25,1207.0,368.25,4
-35.5,-28.0,-85.5,-40.25,-1233.0,-535.25,1015.75,499.0,4
-6.25,-70.25,-52.0,29.25,-1665.75,-468.0,877.5,618.25,4
-2.0,-11.75,5.5,-8.5,-1765.5,-430.5,861.25,721.0,4
12.75,23.5,32.5,28.75,-1863.75,-359.75,870.25,776.0,4
10.0,34.75,-22.75,-66.75,-1877.25,-419.25,869.5,899.75,4
22.0,74.25,-62.75,-95.75,-1902.5,-538.75,838.75,1179.5,4
4.75,12.25,-26.25,38.5,-1905.5,-723.0,729.5,1340.5,4
16.5,-26.25,-48.0,63.5,-1919.25,-780.5,639.75,1370.25,4
10.5,-90.75,-57.5,80.75,-1932.5,-679.25,587.75,1381.75,4
-8.5,-146.5,-6.5,22.0,-1991.25,-315.75,717.0,1588.75,4
205.5,-348.5,353.75,-339.75,-2407.0,-387.75,1149.75,2110.5,4
731.0,-672.0,749.25,-793.5,-2621.5,-147.25,1455.25,2052.5,4
697.25,-289.0,690.75,-760.0,-2541.25,327.25,1420.75,1602.0,4
525.5,147.25,496.75,-589.5,-2510.75,440.25,1254.5,1727.5,4
593.75,-55.75,354.75,-498.25,-2451.0,650.5,1008.5,1650.0,4
428.75,45.5,-14.75,-275.25,-2027.0,1019.25,871.5,1682.5,4
340.0,-34.25,-283.25,-262.5,-1496.0,1403.5,772.25,1379.0,4
15.25,417.5,-857.25,527.75,-1051.75,1976.5,620.25,411.5,4
-979.0,855.0,-780.5,887.5,-1587.5,1777.75,748.5,559.25,4
-892.0,666.25,-585.5,654.25,-2060.5,1379.0,877.75,855.75,4
-743.75,636.0,-662.5,781.5,-2598.0,1383.25,880.5,826.25,4
-763.0,747.25,-350.75,733.75,-2594.25,1259.5,1028.5,1303.0,4
-545.5,689.25,-290.25,639.75,-2414.75,1273.75,572.0,1240.0,4
-627.5,572.75,-193.0,650.25,-2561.25,1005.75,261.5,1432.25,4
-571.75,394.75,-123.25,487.75,-2467.25,96.5,-83.0,1432.75,4
-559.25,393.0,-125.25,527.25,-2459.75,-825.0,-578.5,1398.75,4
-552.5,337.5,-64.25,349.25,-2418.25,-1169.5,-875.0,1461.25,4
-477.0,261.75,-94.0,326.0,-2206.0,-1198.0,-943.25,1469.5,4
-451.25,163.25,-50.75,257.25,-1141.0,-1174.5,-919.75,1713.75,4
-349.5,47.0,-88.0,100.75,-272.0,-1022.0,-874.5,1784.5,4
-347.75,-23.75,-99.75,11.0,-294.25,-892.25,-868.25,1968.25,4
-236.5,-118.5,-101.0,-32.5,-650.5,-753.5,-850.25,1903.25,4
-268.0,-164.75,-97.75,-37.75,-1105.25,-641.75,-801.5,1928.25,4
-118.0,-200.25,-88.0,-117.25,-678.5,-590.5,-899.0,1956.25,4
56.25,-194.25,-91.75,-157.0,694.0,-555.0,-957.0,1946.5,4
139.25,-250.0,-114.75,-252.75,1929.75,-519.0,-1035.25,1829.25,4
245.75,-277.25,-145.0,-292.5,2434.0,-414.5,-1136.0,1826.5,4
282.25,-302.25,-152.75,-392.25,2397.0,-387.5,-1010.25,2017.5,4
319.75,-320.25,-175.75,-523.0,2140.5,-417.5,-925.25,2089.5,4
168.0,-197.75,-170.0,-771.75,1784.5,-762.0,-643.25,2261.75,4
-277.75,203.75,-133.25,-863.5,1951.0,-982.25,-769.25,1631.0,4
-140.25,24.25,-146.0,-344.75,2877.75,-3.25,-2181.25,59.25,4
993.5,-711.75,-316.75,457.5,3064.5,542.5,-2240.5,-517.25,4
1063.75,-441.25,-187.75,168.25,1934.25,114.75,-1445.75,-668.25,4
692.0,-277.25,-107.0,14.0,1209.75,235.0,-1451.0,-1541.75,4
863.5,-544.75,-124.75,197.5,313.5,42.25,-1263.25,-1223.5,4
511.25,-184.0,35.25,-381.75,-307.0,-409.75,-1140.25,-1059.75,4
597.0,-261.0,113.5,-342.75,-116.75,-356.5,-1074.25,-949.0,4
267.25,-200.0,223.5,-753.25,-761.0,-1005.25,-566.25,-480.5,4
54.75,59.0,181.25,-767.75,-537.75,-978.25,-528.75,-988.5,4
405.5,-103.25,217.5,-259.0,459.25,-402.25,-833.75,-2028.5,4
611.25,-467.0,353.5,273.5,814.5,37.75,-803.75,-2465.5,4
480.5,-546.0,425.0,201.25,-56.5,-192.25,143.75,-1940.25,4
174.25,-40.0,400.75,-394.25,-652.0,-146.0,458.25,-2039.75,4
273.0,-69.75,419.25,-63.5,-96.0,200.0,598.25,-1866.75,4
46.5,65.5,349.75,-601.75,-866.75,-370.25,1091.75,-1309.0,4
-181.5,321.0,194.0,-629.0,-663.25,-180.25,1017.5,-1416.25,4
-315.5,16.25,223.25,-467.75,495.0,179.75,658.25,-1508.75,4
-452.75,-146.0,126.75,-487.75,1945.5,412.5,-326.0,-1547.75,4
-553.75,-410.75,257.5,-350.0,2927.5,732.25,-911.75,-1633.25,4
-646.5,-560.75,384.25,-429.75,2471.25,747.5,-1160.75,-1607.75,4
-435.0,-575.75,149.5,-303.75,1964.25,850.5,-1053.75,-1564.0,4
-228.25,-579.5,154.0,-242.5,1234.25,882.75,-664.0,-1302.5,4
18.5,-395.0,174.75,-107.5,886.0,958.75,-636.75,-1456.5,4
512.0,-51.0,-116.0,138.5,785.75,1066.5,-1289.5,-1813.0,4
696.0,156.0,-60.75,517.25,743.25,1465.75,-2168.25,-1890.5,4
691.0,-64.75,172.25,1049.0,708.5,1714.5,-2106.0,-1836.25,4
690.0,-204.0,84.0,1033.0,287.25,1596.25,-1901.5,-1574.5,4
433.0,-61.0,-47.75,831.0,-148.0,1416.25,-1717.5,-1298.0,4
149.25,20.0,2.25,727.5,-1172.0,1308.75,-1573.5,-1016.75,4
-189.25,82.75,148.0,560.0,-1588.5,1055.25,-1487.5,-771.5,4
-357.75,184.5,145.25,488.0,-1995.75,921.75,-1172.25,-688.75,4
-180.25,231.25,186.5,457.25,-1982.0,696.5,-1082.0,-651.25,4
-194.25,263.5,429.5,252.5,-1560.25,544.75,-1502.75,-562.5,4
-123.0,213.75,674.25,100.75,-1676.25,375.5,-1432.75,-493.75,4
-152.75,70.75,697.5,-48.5,-1480.75,377.0,-1244.0,-453.5,4
-152.0,-49.0,508.25,-84.5,-1249.75,479.25,-1222.0,-481.25,4
-144.5,-49.75,86.0,36.0,-1074.5,391.0,-1111.25,-449.75,4
-190.25,-18.25,-531.75,63.0,-926.25,162.5,-1138.0,-381.75,4
-171.25,49.75,-684.0,54.25,-209.75,-108.25,-1063.0,-248.0,4
-181.75,83.75,-546.75,177.5,206.25,-229.5,-1145.5,-249.75,4
-271.75,136.0,-266.5,103.25,-1152.75,-312.75,-889.75,-283.75,4
-354.25,94.25,-70.5,-75.25,-2327.5,-355.25,-480.0,-301.5,4
-244.0,7.5,-79.25,-84.5,-2115.5,-283.0,-207.75,-450.5,4
-77.0,83.75,-8.75,-116.5,-1837.5,-150.25,137.25,-546.75,4
120.25,151.25,-62.75,-197.75,-1035.5,-31.5,603.5,-477.25,4
219.0,247.0,-57.75,-281.25,9.25,96.0,1056.75,-109.25,4
265.25,291.5,-167.75,-620.75,-392.5,7.0,1470.0,375.25,4
245.25,368.75,42.5,-833.25,-1692.0,-61.25,1642.25,440.5,4
108.25,258.25,418.75,-555.5,-815.75,267.0,1538.25,-119.75,4
-47.0,-35.75,266.0,-118.0,263.0,464.0,1465.0,-192.0,4
-74.75,0.25,-116.75,-361.75,-374.5,-59.5,1903.75,588.75,4
44.0,273.75,-395.75,-607.5,-775.75,-333.5,2120.0,740.5,4
-28.75,297.5,-427.25,-477.25,-174.5,-134.0,1799.75,487.5,4
26.0,162.25,-450.75,-234.25,460.0,340.75,1434.25,61.75,4
-16.0,-19.0,-342.5,276.0,725.75,882.5,1368.75,-142.5,4
-359.0,-256.5,-184.25,670.0,588.75,882.0,1359.5,123.5,4
-231.0,-166.0,-235.0,366.75,311.75,455.25,1437.5,552.0,4
74.25,-37.0,-195.25,28.75,-533.25,-31.0,2124.5,1371.75,4
299.25,182.75,-217.0,-555.25,-838.75,-696.25,3155.25,1938.75,4
323.75,327.25,-138.25,-509.0,-182.75,-513.25,2622.5,1619.75,4
232.5,91.75,-45.0,-266.75,-521.25,-629.5,-109.5,1938.0,4
40.5,-101.75,-99.25,-455.75,-544.25,-1089.75,273.0,2098.5,4
-452.25,-197.75,70.75,-234.0,-77.75,-931.0,129.25,1941.75,4
-840.25,-17.5,315.0,-312.25,372.5,-1076.5,-401.0,1945.0,4
-1087.25,-127.5,761.0,-168.0,350.25,-1065.25,-985.25,1759.5,4
-959.0,-260.75,916.5,-24.5,-2.75,-1194.0,-681.25,1588.0,4
-745.75,114.5,383.5,-14.5,-169.0,-1049.5,684.75,1451.75,4
-512.0,159.5,-10.0,89.25,42.0,-596.25,1315.75,1411.5,4
-190.25,91.75,-104.75,46.25,-172.75,-447.5,2353.0,1351.5,4
79.75,120.25,-7.75,93.0,-983.0,-269.0,2852.75,1345.5,4
492.75,-72.5,242.25,-12.0,-1306.5,100.5,2761.25,1475.75,4
363.75,-537.0,536.75,178.25,-1335.75,674.5,1886.5,1027.25,4
-120.25,-484.25,422.0,761.5,-1396.75,826.0,1306.75,32.25,4
269.75,231.0,-169.5,906.75,-1461.0,904.0,1098.75,-107.0,4
690.75,310.75,-401.0,794.5,-760.25,936.0,1273.25,1.5,4
316.5,126.25,-400.25,795.25,-214.0,750.5,1764.5,-124.25,4
325.0,236.0,-456.25,627.25,-622.75,495.5,1737.75,-32.5,4
212.25,153.25,-302.5,403.25,-802.0,239.75,1796.5,-185.5,4
208.5,74.75,124.0,414.25,-687.75,-124.75,1588.5,-193.25,4
520.75,108.5,471.75,176.75,-776.5,-383.0,1442.75,-162.75,4
467.0,62.0,373.0,63.75,-1074.75,-562.25,1689.75,-144.0,4
232.0,46.0,66.75,-8.0,-1718.0,-791.25,1851.25,-30.75,4
-73.75,-5.75,-201.75,36.25,-1765.75,-882.75,1392.5,-236.5,4
-127.25,6.0,-6.0,-66.5,-1447.25,-822.0,928.25,-306.25,4
-200.25,14.75,511.25,-93.0,-1501.25,-672.5,435.75,-478.75,4
-173.0,49.75,607.5,-121.5,-1898.75,-526.5,62.25,-566.75,4
-234.75,86.25,261.5,-32.5,-1949.5,-434.75,-86.0,-602.0,4
-177.0,6.25,-426.5,49.5,-1034.75,-283.75,-106.25,-562.5,4
-62.25,-47.5,-919.5,-75.5,-507.0,-173.25,-22.0,-509.0,4
-130.5,-51.25,-774.5,-196.75,-775.0,-216.25,3.5,-457.75,4
-233.25,-37.25,-379.5,-318.5,-1388.0,-313.5,137.75,-390.25,4
-302.75,-60.75,153.25,-355.75,-532.0,-423.0,534.75,-372.25,4
-337.5,-63.25,-29.25,-314.75,-277.5,-407.75,1090.0,-216.75,4
-417.5,22.75,-417.0,-194.0,-596.5,-266.5,1741.5,-54.25,4
-318.75,67.25,-222.5,-300.5,-1251.0,-67.25,1228.0,15.75,4
-263.25,84.25,-166.75,-358.0,-1225.25,152.0,971.0,-106.5,4
-224.0,84.75,-517.75,-289.75,-1096.0,469.0,1930.0,-239.5,4
-170.25,54.0,-859.25,-198.25,-1108.25,628.0,2048.0,-356.25,4
-214.0,78.25,-850.0,-75.25,-1617.5,605.25,1627.0,-574.5,4
-196.0,105.75,-827.25,-75.75,-1699.5,629.0,1427.25,-756.5,4
-46.5,128.5,-338.0,-67.25,-1135.0,585.0,2159.25,-821.0,4
38.5,110.0,551.0,-69.75,-1449.25,618.25,2153.25,-929.5,4
51.25,19.75,719.0,-39.25,-2100.5,557.75,509.25,-944.75,4
88.25,-63.75,283.25,46.25,-2071.0,389.75,-58.0,-814.5,4
31.75,-118.75,39.0,-47.5,-1962.5,251.5,251.25,-713.0,4
-67.0,-175.75,-275.75,-101.25,-1674.25,83.25,1307.5,-660.75,4
-102.5,-184.5,-433.0,-95.25,-1408.25,-76.25,1163.0,-580.75,4
16.5,-116.5,-582.25,-110.75,-1064.25,-209.5,516.5,-452.25,4
231.0,-61.75,-420.0,-50.25,-881.75,-305.5,707.75,-373.5,4
344.25,-47.5,13.75,-93.5,-453.25,-287.75,1021.25,-433.0,4
239.75,-34.5,255.25,-110.5,417.0,-225.25,1254.75,-557.0,4
149.0,13.25,437.0,-84.0,992.0,-150.25,965.5,-609.25,4
242.5,59.5,298.0,-71.5,1095.25,38.5,63.0,-593.75,4
228.5,56.75,179.0,-30.5,1345.5,208.0,-510.75,-589.0,4
-116.75,47.0,48.25,-12.5,1979.25,232.25,-1037.25,-610.25,4
-215.0,42.75,34.0,-92.75,1981.0,126.5,-1110.5,-491.5,4
170.75,-11.75,286.75,-295.5,1492.75,-103.25,-983.75,-83.25,4
604.0,-372.25,810.5,-619.5,1062.0,-528.75,-579.25,418.0,4
709.5,-637.0,950.25,-702.75,1494.25,-425.25,963.75,563.5,4
381.5,38.0,323.5,-659.75,1649.0,-155.75,1408.5,336.75,4
10.25,509.25,80.0,-581.5,1613.25,-129.75,1476.0,395.25,4
-157.0,418.0,340.25,-395.75,1710.75,11.5,868.0,472.5,4
369.25,320.0,568.75,-251.25,1988.75,234.25,-24.75,485.75,4
453.0,224.75,675.0,-251.0,2184.0,404.75,-734.0,121.75,4
213.25,241.5,866.75,-136.5,840.25,499.5,-1176.0,176.75,4
-295.5,153.0,533.25,-105.0,295.0,490.75,-827.0,222.5,4
-920.25,197.75,-195.5,105.25,73.75,614.0,-230.0,72.0,4
-1000.25,73.25,-286.5,159.25,0.5,583.25,-359.75,39.75,4
-945.5,5.5,-685.5,163.0,51.5,564.25,-652.75,-113.5,4
-763.25,-2.0,-445.25,202.0,73.0,601.5,-369.25,-101.25,4
-412.75,-35.0,167.5,230.0,1835.5,787.75,-226.75,-23.75,4
-26.25,12.0,363.0,296.25,2166.75,599.25,305.0,136.25,4
399.0,21.75,194.75,346.75,1795.75,409.0,329.0,221.0,4
665.5,-14.5,-508.0,364.0,1941.5,500.0,-154.75,269.25,4
759.75,-54.5,-557.0,314.5,2060.75,187.25,-424.25,322.75,4
749.75,54.25,-711.25,305.0,2088.25,-159.25,-1304.25,416.0,4
819.5,30.75,-661.25,287.5,1318.0,-144.25,-1206.5,443.75,4
796.0,-52.0,-415.5,294.5,663.0,-98.75,-474.0,362.75,4
769.5,-206.0,-409.0,279.0,446.0,-156.25,924.75,534.75,4
601.0,-265.0,-315.75,279.25,373.75,-173.5,734.0,504.5,4
285.5,-234.25,-453.0,261.0,341.5,-116.5,189.25,390.75,4
316.25,-148.25,-164.0,252.75,543.25,1.0,151.75,326.75,4
331.75,-22.25,411.0,266.0,1127.25,97.25,77.5,293.75,4
335.0,-90.75,531.75,214.5,568.75,447.0,-103.0,383.25,4
380.5,-225.0,280.0,147.0,315.75,478.0,-842.75,307.5,4
304.25,-276.75,822.75,119.25,279.0,387.25,-1140.75,252.75,4
87.5,-279.75,843.75,167.25,140.25,608.75,-1079.5,403.5,4
-281.25,-291.25,-528.75,266.5,-18.0,352.0,-1018.5,621.0,4
-617.75,103.25,-1282.0,240.75,225.5,349.25,-1091.0,700.75,4
-912.5,362.25,-1421.0,92.0,640.75,568.0,0.75,694.75,4
-1210.25,209.5,-1434.0,-6.25,-373.25,279.5,549.0,543.5,4
-1408.0,181.75,-1136.0,-96.75,-455.75,-84.75,338.75,410.0,4
-1362.5,89.5,-621.0,-116.0,-493.75,-362.5,341.25,390.5,4
-1134.75,25.0,-68.0,-139.75,-210.25,-342.25,522.0,236.25,4
-698.75,-14.25,66.75,-151.75,112.0,-243.0,291.75,90.0,4
-143.25,-103.0,324.75,-81.75,291.25,-378.5,-568.75,-92.25,4
340.25,-229.0,671.0,-60.0,617.0,-386.0,-815.0,-48.0,4
555.5,-629.25,693.25,-68.25,601.0,-170.0,-873.25,5.25,4
432.0,-805.75,940.25,3.75,234.25,6.25,-1066.5,-193.75,4
146.0,-739.5,1408.5,139.75,-93.75,131.75,-1269.0,-354.5,4
-24.25,-631.25,1573.25,259.75,768.5,315.0,-1674.75,-391.75,4
-1.25,-513.0,1557.5,483.5,1139.0,394.75,-1796.0,-336.5,4
-9.25,-481.75,822.75,651.25,783.25,297.75,-1831.75,-199.5,4
-156.75,-369.75,355.75,545.0,398.0,206.0,-1702.75,-50.5,4
-305.5,-247.5,284.75,50.5,-465.5,132.25,-1249.25,-24.75,4
-343.0,-188.75,-15.75,-613.0,-567.0,-1.5,-1010.5,167.0,4
-74.25,51.25,-182.5,-807.0,-282.25,-299.25,-676.75,490.75,4
249.5,185.25,-273.5,-658.5,-180.0,-567.25,-514.5,680.25,4
473.5,599.0,-349.75,-623.75,-203.25,-650.25,-397.0,603.75,4
494.75,1021.0,-426.5,-483.5,-120.75,-688.25,-294.25,304.25,4
406.0,981.5,-432.25,-313.25,-230.5,-601.75,144.5,97.0,4
255.0,995.0,-335.75,-241.0,-290.0,-224.75,223.0,79.25,4
-1.25,978.75,-436.0,-155.5,-82.25,124.25,63.75,-24.0,4
-231.75,784.25,-806.0,-208.0,-41.0,311.0,-737.75,-32.0,4
-389.25,601.5,-891.5,-168.5,-61.5,428.5,-854.5,51.5,4
-427.25,530.75,-557.75,-113.25,-76.25,320.5,-529.5,-46.5,4
-420.75,349.25,-291.0,-68.0,28.75,214.0,-16.5,19.25,4
-252.5,196.5,75.75,-7.5,144.5,137.75,334.0,251.75,4
-145.5,88.0,275.25,23.5,542.5,-42.5,307.5,299.25,4
-163.5,-63.75,53.25,12.25,854.25,-195.75,-152.0,194.75,4
-147.0,-117.25,-404.0,80.0,891.75,-471.25,-616.5,228.5,4
-102.75,3.75,-763.5,93.0,-334.25,-757.75,-846.25,258.5,4
-26.75,204.5,-572.75,164.5,-1056.75,-733.0,-889.25,-37.5,4
-72.0,240.0,48.5,52.5,-846.75,-535.75,-529.5,-287.0,4
-62.5,233.0,538.25,-330.0,-991.0,-428.0,-249.25,-339.5,4
-76.5,172.25,926.0,-443.0,-1217.5,-434.25,-260.0,-431.5,4
-239.0,-80.0,958.25,-402.25,-1510.5,-356.0,-796.25,-579.5,4
-47.25,-238.75,741.25,-185.5,-1722.5,-101.75,-1806.75,-472.0,4
163.0,-422.0,114.0,55.75,-1902.25,109.25,-1495.0,-176.75,4
277.75,-672.5,-409.0,167.0,-1553.5,238.75,-1105.5,-252.75,4
586.5,-730.5,-784.25,165.0,712.25,294.0,-543.75,-118.25,4
1012.5,-785.5,-1286.5,161.25,1316.75,374.0,-1087.75,147.0,4
1302.0,-623.75,-1210.25,252.0,1090.0,367.5,-1650.75,142.5,4
1286.75,-373.5,-1210.5,313.75,657.0,191.75,-1054.0,299.0,4
1104.25,-297.75,-475.25,413.75,314.0,137.75,-43.0,150.0,4
961.25,86.5,334.25,445.5,38.0,178.5,769.5,-164.5,4
935.0,273.0,645.0,394.0,-144.5,341.0,967.0,-218.5,4
626.75,267.75,776.75,307.5,-209.0,418.5,1122.0,-220.0,4
354.0,692.75,48.0,130.0,-727.5,342.75,1197.25,178.5,4
210.0,741.5,-213.25,-18.0,-1190.75,435.0,1095.25,698.25,4
-472.25,363.5,30.5,-70.0,-915.5,715.5,1099.75,930.75,4
-1197.5,283.75,164.75,-77.25,-663.25,859.5,998.25,856.5,4
-1304.75,141.0,-250.0,-55.75,-247.5,984.75,739.25,417.0,4
-945.0,-360.75,-618.0,-67.75,76.75,1131.75,379.75,-33.75,4
-566.5,-465.0,202.25,36.5,100.5,1175.0,68.75,-711.0,4
-580.75,-359.75,1184.0,170.5,230.25,1249.75,-289.0,-1493.25,4
-717.75,-202.5,1209.0,207.5,450.5,1328.75,249.25,-1631.0,4
-1276.75,-41.25,1355.25,405.75,1145.25,1556.25,627.5,-1640.5,4
-1824.0,335.25,1553.0,540.0,1189.5,1668.5,167.75,-1439.25,4
-1761.25,760.75,1650.25,436.25,1177.0,1564.5,-728.5,-686.75,4
-1636.0,833.25,652.25,274.0,954.25,1496.75,-1890.25,-90.5,4
-1629.25,677.5,-415.25,262.5,479.0,1357.0,-1398.25,204.75,4
-1408.5,102.75,-608.5,251.75,505.0,1339.75,-68.25,296.5,4
-1478.25,-539.5,-336.75,314.25,-245.0,1336.75,549.0,425.5,4
-1387.0,-1119.0,53.5,160.5,-1603.0,1169.0,219.25,506.25,4
-1352.25,-1268.0,-473.5,30.5,-2209.25,991.5,295.0,724.25,4
-269.0,-1068.0,-747.0,-187.25,-1203.0,602.75,1003.25,1195.75,4
1087.5,-842.25,-342.0,-342.75,-673.75,335.5,711.0,1352.75,4
1191.75,-518.75,-24.75,-358.0,-446.25,89.5,638.75,1241.25,4
1260.0,-180.25,111.5,-354.25,-669.0,-24.25,554.25,742.75,4
968.0,136.25,23.25,-81.5,-1152.5,154.0,59.0,130.75,4
712.0,398.5,-20.25,-19.5,-1057.25,294.0,325.75,259.25,4
806.25,237.75,653.25,-152.25,-936.75,410.75,1050.5,365.5,4
811.75,134.0,816.75,-193.75,-1110.25,489.75,1213.75,161.5,4
842.25,104.5,2.25,-313.5,-1834.5,413.25,951.0,-93.5,4
983.25,-13.25,-1193.5,-385.0,-1221.5,418.5,850.5,-544.25,4
752.75,112.5,-1188.75,-185.25,-1015.5,564.25,942.75,-708.0,4
-85.25,152.0,-1132.0,17.0,-973.5,786.5,922.5,-939.75,4
-659.25,393.75,-1063.75,-19.0,-1517.25,780.5,1094.0,-932.75,4
-1013.0,215.75,-1022.5,-26.5,-1600.25,838.0,1587.75,-605.0,4
-1164.25,-48.25,-834.75,-78.75,-1546.75,867.25,1654.5,-377.0,4
-1106.75,-96.5,36.25,-140.25,-1507.0,863.0,1445.25,-350.75,4
-527.5,-34.75,891.75,-56.0,-1292.5,974.25,844.75,-530.25,4
-127.0,48.0,921.0,-0.5,1827.25,863.25,648.25,-473.5,4
-1139.0,-9.75,1003.0,-46.5,2634.25,309.0,673.0,-737.25,4
-1155.75,105.25,1009.75,-131.0,2599.0,-789.5,755.25,-1063.0,4
-1133.25,11.75,1013.0,-171.5,1606.0,-1514.25,1246.0,-916.0,4
-643.5,-24.0,1009.5,-211.75,753.75,-1576.5,1625.25,-760.5,4
-392.0,-265.5,985.25,-215.25,918.5,-1667.0,1330.5,-1003.75,4
-200.75,-404.75,707.75,-284.75,1470.5,-1822.25,612.75,-1065.0,4
691.0,-293.25,-141.5,-287.0,2209.5,-1991.0,178.5,-916.25,4
1165.5,-154.25,-995.5,-254.5,2421.0,-2145.75,169.75,-940.0,4
1185.75,60.25,-1219.75,-250.0,1878.75,-2139.75,809.0,-308.75,4
1032.5,-40.5,-1288.25,-169.75,1156.0,-1992.75,1388.0,356.5,4
1366.75,104.25,-1320.5,-218.75,1016.25,-1987.75,1358.25,829.75,4
966.5,438.75,-1295.0,-183.0,845.75,-1431.5,1779.0,1102.25,4
317.75,425.0,-1164.5,-83.25,971.5,231.5,1668.5,931.5,4
1131.0,329.0,-567.5,-78.75,516.5,339.0,2036.0,802.25,4
1162.75,268.5,108.0,-254.25,-441.75,320.75,1469.5,671.0,4
963.0,224.75,256.75,-349.25,-747.5,244.0,-68.0,420.5,4
928.0,88.75,127.0,-225.25,-678.25,356.5,-726.5,136.25,4
423.75,-48.25,-818.25,-60.25,744.25,514.75,-1409.5,-533.5,4
-133.25,-64.0,-1022.75,-10.0,831.25,407.25,-1767.75,-580.5,4
-775.25,-126.25,-1211.5,71.75,11.75,169.5,-2197.5,-247.75,4
-842.75,-127.0,-1308.75,129.0,-839.75,-603.75,-1104.75,-182.5,4
-805.0,-97.75,-809.5,88.75,-806.0,-1182.5,-914.75,57.75,4
-924.5,-47.5,286.5,224.75,-484.75,-1402.25,-843.5,618.5,4
-1014.75,23.75,850.25,133.75,-1033.25,-1372.25,-542.0,924.25,4
-929.75,79.5,996.0,-23.75,-1182.5,-1331.0,-223.25,1104.0,4
-847.75,-71.25,1002.5,-96.75,-729.75,-1047.0,-197.75,1206.75,4
-675.0,-331.25,1038.25,79.5,615.25,-646.5,-253.0,804.25,4
-242.0,-324.0,1022.75,248.0,816.25,-446.5,-651.75,913.75,4
-63.75,-301.75,118.75,177.25,-489.5,-500.0,-577.0,1234.25,4
-224.0,-256.25,-585.25,215.0,-278.5,-544.0,391.75,1722.75,4
-243.5,71.25,-91.75,81.0,-940.0,-587.25,841.25,2005.75,4
-61.0,234.25,124.25,-81.0,-1016.25,-480.0,933.5,1761.5,4
-542.5,200.25,-187.25,-61.0,-949.0,-366.75,970.5,1529.25,4
-1087.0,288.75,-391.0,18.5,-1234.0,-435.25,890.5,1518.0,4
-1209.75,190.25,25.5,111.75,-1242.5,-452.5,470.0,1711.5,4
-1344.75,241.0,365.25,190.25,-1453.75,-539.0,-81.25,1803.75,4
-1405.75,196.5,270.25,208.0,-1545.75,-412.25,-161.0,1763.5,4
-477.0,28.0,343.75,161.75,-1461.0,-404.0,-268.0,1377.75,4
422.25,159.5,415.25,50.0,-1465.5,-460.0,-562.0,798.5,4
624.0,261.25,495.75,15.5,-334.25,-387.25,-479.25,-212.25,4
-1071.0,261.0,149.0,101.5,2013.5,613.25,-524.75,-2145.75,4
-991.75,175.5,-92.25,256.75,2994.5,1496.5,-436.5,-2487.0,4
-934.25,254.25,-307.25,533.75,3350.25,1604.5,-321.0,-2434.0,4
-133.25,85.0,-555.0,498.75,2919.25,1583.0,-27.75,-2337.0,4
1104.0,-85.0,-597.25,162.25,2790.5,1586.0,195.75,-2277.5,4
1158.75,-99.25,-545.0,-259.75,1566.25,1567.75,242.5,-2153.25,4
1190.0,-131.5,-360.25,-874.0,562.5,815.5,1940.0,-2116.0,4
1239.25,1.25,-276.0,-961.0,537.0,944.75,2368.0,-2200.25,4
698.25,-19.25,-255.25,-792.5,660.0,968.0,2409.25,-2067.5,4
-983.0,65.5,-176.0,-710.0,718.5,653.5,2588.75,-2008.25,4
-1117.5,15.5,-7.0,-212.75,199.25,718.75,1611.5,-2010.0,4
-1313.0,-54.75,115.0,276.0,-620.0,700.75,1050.25,-1855.0,4
530.0,114.0,262.5,729.5,-672.25,772.5,1061.5,-1815.0,4
485.5,220.5,297.0,773.0,-1884.0,611.75,1083.0,-1753.0,4
514.0,-65.25,193.0,534.5,-2177.75,610.0,818.0,-1730.5,4
619.75,-158.5,154.75,532.75,-1333.25,943.75,663.25,-1620.25,4
712.25,119.75,67.75,368.0,-1394.75,1260.5,997.5,-1360.0,4
725.75,-25.0,-9.5,446.0,-1298.5,1305.75,1340.5,-1162.5,4
-1255.75,-129.5,7.5,832.5,-1334.5,1362.0,2066.0,25.25,4
-1258.75,-242.25,24.25,743.0,-1284.25,1521.5,2247.5,922.25,4
-1244.5,-111.0,-44.25,581.0,-514.75,1219.0,1697.0,1004.0,4
-1277.75,-67.5,-85.25,294.75,735.25,-343.0,1273.75,1129.75,4
705.0,-45.25,-106.5,-293.25,764.5,-239.75,1022.0,1371.75,4
742.5,174.75,-56.75,-505.0,775.75,747.5,1292.0,1479.25,4
780.25,133.5,15.75,-426.0,653.75,1507.25,1466.75,1468.25,4
877.5,318.0,35.75,-151.5,-911.0,1514.0,1159.0,1471.75,4
1003.75,256.5,153.75,194.0,-1059.75,1771.25,564.25,1449.5,4
603.5,63.25,47.75,280.75,-2023.5,2074.5,-70.25,1522.5,4
153.75,123.25,-127.75,190.5,-3038.25,1410.75,-407.5,1530.75,4
-74.5,271.5,-251.75,134.5,-1768.75,892.0,-833.25,1537.5,4
9.5,103.25,-366.25,70.75,-877.75,1281.25,-2170.75,1591.0,4
117.25,-359.0,-286.5,-14.25,-600.0,1694.25,-1978.75,1668.0,4
261.25,-482.5,-252.75,-12.75,-402.25,1273.25,-1298.0,1774.5,4
366.0,-177.75,-227.25,-146.0,-339.75,382.75,7.75,1993.0,4
571.25,164.75,-206.75,-243.25,-213.0,-170.25,679.25,2141.75,4
85.5,176.25,-116.5,-290.25,473.75,-264.75,765.75,2081.25,4
-215.0,66.25,28.5,-321.25,1173.5,-416.25,601.75,2109.0,4
-493.0,-63.5,61.75,-343.75,1563.0,-504.5,42.25,2076.25,4
-485.0,-235.0,30.75,-410.0,1657.5,-498.5,-883.25,2033.5,4
-442.0,-350.0,35.5,-317.5,1241.25,-411.25,-1263.75,1781.25,4
-408.5,-561.5,-6.5,-497.25,-29.0,-377.25,-935.25,1478.25,4
-309.25,-495.75,-99.25,-546.75,-114.5,-373.0,294.0,1242.0,4
-145.25,-85.25,-95.0,-573.75,-231.0,-380.0,-36.5,977.25,4
-61.0,72.25,-110.0,-685.75,-599.0,-422.5,58.75,896.75,4
-173.75,55.5,-127.0,-514.0,-723.0,-381.25,329.0,699.25,4
-74.75,-112.5,-105.25,-570.75,-306.0,-529.75,241.5,353.75,4
-126.5,-175.25,-80.5,-526.0,1443.75,-108.5,-67.75,-800.25,4
-595.0,88.5,-2.0,-499.75,2201.5,381.75,-1531.0,-1152.0,4
-682.25,329.0,9.25,-485.0,2763.25,-387.75,-1521.5,-879.75,4
-1054.25,640.0,199.75,-445.0,2264.0,-640.5,-1640.0,-1806.75,4
-191.0,-237.25,1067.25,-526.25,3689.75,395.0,-610.25,-2957.0,4
681.5,-864.5,1096.0,-440.25,3572.5,-260.25,-98.5,-3099.5,4
639.25,-588.5,1034.25,-357.5,1382.5,-1945.25,376.75,-2756.5,4
681.25,-419.75,919.0,-308.5,1409.25,-1663.25,379.75,-2759.0,4
705.75,-460.5,768.5,-242.25,1299.0,-1990.0,478.0,-2350.75,4
499.75,-286.0,584.0,-214.25,-140.25,-1880.75,-148.75,-2445.25,4
562.25,-324.75,504.25,-204.75,-623.0,-2121.25,-385.75,-1995.25,4
285.0,-5.75,188.5,-228.5,717.0,-1910.5,-1263.75,-1956.25,4
617.25,-230.75,315.0,-136.75,852.5,-1409.25,-1833.25,-1722.75,4
461.25,-128.75,41.75,25.5,-724.5,230.5,-1404.75,-1520.75,4
323.0,-98.75,-129.5,45.75,-2410.5,170.75,-1455.0,-1138.25,4
-146.75,187.25,-524.0,-23.0,-2749.75,99.25,-1879.5,-883.75,4
-55.75,154.0,-477.75,8.75,-1669.5,655.5,-1607.75,-860.0,4
427.25,57.5,-236.5,2.0,-1323.25,921.5,-322.75,-334.75,4
222.25,227.5,-400.75,-76.0,-540.0,919.5,0.75,-62.0,4
-179.5,454.75,-547.25,-214.5,-1060.75,579.25,1040.25,641.0,4
-889.75,1009.25,-652.5,-360.0,-1649.25,582.5,-446.25,808.25,4
-883.5,984.5,-562.75,-422.0,-1577.75,676.25,-534.0,854.25,4
-567.75,848.5,-557.75,-437.75,-1445.75,672.0,-81.25,958.5,4
-466.25,804.5,-501.75,-291.75,-937.75,941.0,114.75,676.0,4
399.75,558.0,-13.75,15.5,-1044.75,1499.25,-216.75,262.25,4
648.5,14.75,925.75,420.5,-1496.25,2146.0,-44.0,-0.75,4
570.75,-596.0,1095.25,768.5,-1263.0,2065.0,1198.25,-35.25,4
471.5,-528.0,869.5,767.75,-1299.0,1900.75,1176.5,-270.0,4
387.25,-304.5,822.5,561.5,-1281.5,1853.0,1188.75,-298.0,4
100.0,-253.5,272.25,459.5,-1547.25,520.25,1482.75,197.5,4
-580.25,179.5,-498.5,310.75,90.75,-1137.25,1885.0,752.5,4
-990.0,256.5,-638.75,197.0,1103.75,-1293.25,1865.0,778.25,4
-202.0,-140.0,38.0,259.75,2221.0,-889.25,1742.5,419.75,4
179.75,-244.75,-103.0,124.5,1530.5,-1673.0,1589.75,945.75,4
-931.75,546.5,-678.0,-182.0,1552.5,-1997.0,1352.0,1103.25,4
-855.5,644.0,-593.0,-347.75,2290.25,-1662.0,656.5,781.25,4
-502.25,801.5,-594.0,-504.0,2479.0,-1724.0,352.25,693.5,4
-481.5,1186.5,-485.0,-500.0,2781.0,-1493.25,314.0,263.25,4
234.5,910.25,36.0,-357.5,1965.5,-1183.5,404.75,-314.75,4
591.0,280.75,635.25,29.25,1091.25,-497.5,175.0,-922.0,4
733.25,-615.0,831.5,539.75,487.0,-496.25,221.0,719.25,4
565.75,-972.25,596.75,629.0,-319.75,-655.0,714.0,1609.0,4
577.0,-924.0,725.0,489.25,-439.25,-503.25,830.0,1643.75,4
493.75,-1052.0,596.75,382.5,-475.25,-881.75,827.25,1885.75,4
259.25,-955.25,340.5,187.25,316.25,-982.75,818.75,1967.5,4
196.5,-990.5,237.5,-8.75,586.5,-1097.25,787.5,2026.0,4
185.75,-746.0,279.0,-33.25,1151.75,-1112.25,733.5,1981.25,4
182.5,-545.0,116.75,-135.5,260.75,-1401.0,726.5,2146.25,4
-200.5,-588.0,-297.25,-120.5,564.5,-1519.0,702.25,2069.0,4
-93.5,-591.75,-427.25,3.25,-527.0,-1715.5,831.75,2388.5,4
-862.0,75.0,-815.75,-140.0,-1766.75,-1250.75,339.75,2541.25,4
-785.0,642.0,-707.75,-259.5,-1404.25,-256.75,-463.25,2379.0,4
-669.25,1208.5,-685.5,-356.5,-1547.75,200.25,-468.25,2292.75,4
-807.25,1375.0,-630.75,-157.0,-309.5,383.5,-449.25,2057.75,4
-679.25,1024.25,-115.0,78.25,264.25,457.25,-770.25,1813.5,4
-702.0,590.0,-105.0,177.75,113.5,473.25,-938.75,1463.0,4
-569.25,-262.25,344.75,521.0,95.25,611.5,-726.0,1213.75,4
-555.5,-584.25,284.5,766.5,-273.5,546.25,-762.75,1030.75,4
-221.0,-431.5,361.25,865.25,263.0,727.5,-1509.75,1019.25,4
45.0,-443.25,285.75,750.25,-318.0,697.25,-1593.5,1026.5,4
195.75,-447.75,386.25,635.75,-312.25,767.5,-1428.25,471.75,4
437.25,-326.5,474.25,424.0,-648.75,773.5,-1378.5,-175.75,4
493.0,-334.5,398.0,19.0,-784.25,851.5,-1128.0,-563.5,4
586.5,-378.25,172.5,-411.25,-78.0,1005.75,-1019.0,-1053.5,4
554.5,-155.75,33.5,-540.0,1104.25,1072.0,-1097.5,-1429.0,4
670.75,113.75,126.5,-282.5,1485.5,1022.25,-1102.25,-1537.0,4
681.5,264.0,19.25,-366.75,1769.25,1424.0,-944.75,-1552.5,4
696.0,599.75,50.0,-394.75,2209.0,1936.0,-778.25,-1636.25,4
646.75,619.75,-56.0,-204.25,2220.5,1750.25,-632.25,-1803.25,4
604.25,781.75,-131.5,-5.0,2314.5,972.5,-448.25,-2070.5,4
565.0,400.75,-197.75,206.75,2275.25,21.25,-394.5,-2043.75,4
470.75,-298.5,22.0,184.0,2330.5,-603.0,-383.5,-800.75,4
426.5,-1149.5,525.75,310.25,2313.0,-1176.5,-354.5,-611.5,4
397.75,-1550.25,619.5,569.5,2316.75,-1785.25,-249.75,-350.25,4
375.5,-1469.25,530.25,498.75,2142.25,-1778.0,-67.25,74.75,4
237.0,-1268.5,264.75,87.25,408.75,-1913.5,134.0,386.5,4
-14.0,-789.0,11.0,-67.75,-707.75,-1988.0,245.75,241.5,4
157.75,-402.75,409.25,309.25,482.5,-1465.5,359.75,-396.25,4
347.0,-65.0,458.5,451.25,486.0,-1588.0,358.5,-228.25,4
178.5,290.0,233.75,351.25,-251.0,-1875.25,367.5,297.75,4
87.75,122.0,378.5,385.75,-34.75,-1792.25,359.5,-610.25,4
34.5,132.5,187.75,263.0,-542.75,-12.5,312.75,13.0,4
-121.75,260.0,131.5,209.75,-483.5,-0.75,319.25,44.0,4
-172.75,150.5,85.75,362.75,-811.75,-42.25,252.0,189.0,4
-272.75,102.25,-49.25,242.5,-656.25,38.25,79.5,203.25,4
-243.25,-54.25,-33.5,69.75,540.5,-128.0,-91.75,303.25,4
-340.25,147.25,-312.0,75.25,1389.25,-486.0,-111.25,1822.25,4
-426.25,385.75,-491.0,120.5,1555.75,21.25,140.0,1374.75,4
-567.25,626.75,-707.5,-67.0,2004.5,775.75,260.5,264.75,4
-312.0,399.25,-99.75,177.75,2948.25,1895.5,520.0,-1590.25,4
33.0,199.0,357.5,239.5,2866.75,1896.75,796.75,-2111.0,4
-200.0,537.75,55.5,-45.5,2148.75,1576.25,815.5,-1968.75,4
-203.25,624.0,17.75,47.75,1816.5,1391.5,915.75,-2507.5,4
-242.0,655.0,-224.75,-37.75,1310.75,1094.75,863.5,-2564.25,4
-306.25,556.25,-391.75,-130.75,1391.5,1056.0,737.5,-2879.75,4
-310.5,349.75,-497.75,-300.25,1379.5,924.75,572.75,-2825.5,4
-358.0,238.75,-446.25,-264.25,1654.25,732.5,495.5,-2804.5,4
-237.25,241.75,-265.0,-303.75,1414.5,276.5,370.5,-2670.75,4
-278.0,223.75,-326.25,-450.5,945.25,0.25,229.25,-2548.75,4
-296.25,-71.5,-237.75,-414.25,721.25,580.75,90.75,-2263.25,4
-294.25,-78.25,-332.0,-436.75,-252.5,1210.25,-31.75,-1640.5,4
-295.25,-121.5,-357.0,-382.25,-1891.75,1683.25,-158.5,-1665.5,4
-268.0,-87.75,-344.75,-434.75,-2310.5,1330.5,-265.75,-1759.75,4
-248.5,101.25,-382.75,-244.25,-2111.5,1012.0,-295.5,-1859.75,4
-142.75,254.5,-326.5,-166.0,-2078.5,435.5,-336.0,-1583.75,4
-88.0,548.5,-319.75,-349.25,-1951.75,-434.5,-384.5,-1685.5,4
-83.75,460.25,-225.75,-405.75,-1720.0,-1126.75,-436.75,-1612.25,4
-96.75,316.75,-286.5,-554.75,-1963.75,-1841.0,-498.75,-1133.5,4
-108.0,196.25,-310.75,-602.75,-1785.75,-2512.0,-539.25,-795.5,4
-112.75,201.25,-396.0,-372.0,-2103.75,-2927.0,-553.5,-874.25,4
-147.75,166.75,-497.0,125.0,-2330.5,-2632.75,-535.5,-1112.5,4
-213.0,201.75,-516.5,236.5,-2409.75,-2493.0,-535.5,-866.75,4
-364.25,482.5,-512.5,-204.75,-2385.0,-2564.0,-556.75,-440.0,4
-637.25,653.75,-523.75,-365.0,-2327.5,-2306.75,-605.25,-461.25,4
-728.0,623.5,-487.75,-371.75,-2320.0,-1961.5,-1795.0,-504.75,4
-652.0,452.25,-431.0,-377.5,-2065.25,-1905.75,-2641.25,-541.5,4
-572.5,340.75,-266.0,-139.5,-1726.0,-1858.75,-2627.5,-265.75,4
-533.25,43.5,-48.25,101.25,-1312.75,-1702.0,-2563.75,370.75,4
-498.0,-188.75,71.75,59.25,-1243.5,-1553.25,-2507.75,952.5,4
-430.0,-142.25,239.5,-91.5,-1333.0,-1442.5,-2401.75,1011.0,4
-394.75,-335.25,447.0,-262.5,-1779.75,-1452.25,-2276.75,767.25,4
-350.25,-538.25,446.5,-503.25,-1780.5,-1026.75,-2188.75,674.0,4
-109.0,-590.5,427.5,-533.75,-1537.25,-588.25,-2074.5,669.75,4
97.0,-556.5,461.75,-523.75,-1515.0,-129.25,-1970.5,620.75,4
206.75,-310.25,411.75,-355.75,-1356.75,239.0,-1813.75,-968.75,4
332.0,-265.75,319.5,-147.25,-1381.25,421.75,-1636.0,-1379.25,4
407.75,-357.75,266.5,-60.25,-1421.0,511.5,-1482.25,-1362.5,4
447.75,-267.5,227.5,-7.0,-1516.5,459.0,-1337.25,-1367.25,4
445.25,-278.5,166.75,68.5,-1576.0,274.25,-1222.5,-1000.0,4
500.75,-228.5,117.25,440.0,-1606.0,121.0,-1103.25,215.0,4
552.0,-97.75,177.75,847.75,-1640.25,-139.0,-985.0,-398.5,4
520.5,-232.0,254.5,725.0,-1660.75,-448.75,-869.25,-876.0,4
475.0,-315.25,195.5,444.25,-1692.0,-633.25,-738.25,-736.5,4
515.25,-102.75,150.25,408.5,-1691.0,-906.25,-600.25,-608.5,4
531.25,-77.75,118.5,250.75,-1449.75,52.75,-453.25,-455.25,4
495.25,-169.25,102.0,280.75,-774.0,245.75,-362.5,-492.25,4
445.0,-238.5,97.75,354.25,-153.5,-102.0,-323.75,-945.0,4
386.25,-308.5,46.0,275.75,120.5,-552.75,-285.5,-1012.25,4
362.75,-205.5,53.75,145.25,270.25,-1319.5,1692.0,-882.5,4
315.25,-69.75,40.75,-34.25,242.5,-1822.25,1672.75,-654.5,4
299.25,186.25,-5.75,10.75,194.25,-1808.25,1680.25,-513.25,4
317.25,342.75,-35.25,170.5,272.5,-1474.25,1657.5,-597.0,4
365.25,170.5,-103.75,241.5,623.0,-516.75,1673.5,-1121.5,4
461.75,-31.25,-148.75,206.0,1042.75,141.25,1720.75,-1437.5,4
461.5,-463.75,-144.25,234.25,1402.75,243.0,1719.75,-1459.75,4
379.75,-965.25,-181.0,284.0,1552.0,406.75,1700.0,-1605.5,4
405.5,-686.75,-303.25,167.5,1511.75,467.75,1655.25,-1870.0,4
445.25,-16.5,-343.0,443.75,1785.5,555.25,1612.25,-2079.75,4
374.5,-353.75,242.25,1051.75,2116.5,930.25,1619.0,-2039.5,4
367.75,-629.25,787.75,1195.5,225.25,1221.25,1560.0,-1958.75,4
275.0,-231.5,821.0,919.75,-165.5,1225.75,1428.25,-1933.75,4
72.5,-148.5,672.75,373.25,-601.0,1450.5,1326.5,-1798.0,4
-43.25,-262.5,626.0,-48.0,-1051.0,1637.75,1190.25,-1676.75,4
-169.75,-48.5,327.5,-361.5,-1029.5,1777.75,1051.5,-1420.75,4
-247.5,28.25,386.0,-455.0,-862.75,2013.25,907.0,-344.75,4
-323.25,117.25,173.5,-464.25,736.0,1988.5,791.75,498.25,4
-362.25,202.75,152.75,-359.0,1044.75,1388.0,709.25,540.5,4
-411.25,202.0,5.0,-276.75,838.25,766.25,632.5,660.25,4
-435.0,163.25,-56.25,-157.5,681.75,621.0,-1382.75,948.5,4
-435.0,158.25,-138.0,-82.75,424.0,652.0,-1366.0,1289.75,4
-439.25,154.25,-221.75,-130.25,247.25,683.25,-1264.5,1521.0,4
-384.0,208.25,-197.75,-213.5,124.75,700.0,-1152.25,1888.5,4
-372.75,301.75,-319.5,-286.75,75.5,710.75,-1037.0,2005.25,4
-320.0,311.25,-273.5,-203.0,263.0,645.5,-902.0,1629.0,4
-275.25,342.5,-325.25,-235.75,629.5,-197.75,-749.75,1323.0,4
-241.25,366.5,-338.75,-246.5,987.5,-717.25,-566.5,889.0,4
-232.5,385.75,-353.0,-271.0,1524.25,-731.5,-420.5,744.5,4
-227.25,311.0,-253.25,-175.25,2329.75,-409.0,-276.75,650.75,4
-225.5,234.75,-169.75,-83.75,2130.5,-232.5,905.75,795.0,4
-280.75,217.0,-225.0,-198.25,1417.75,-17.0,1931.5,1059.0,4
-246.5,168.75,-193.0,-172.25,922.0,78.75,1979.0,1178.25,4
-206.0,119.0,-227.25,-217.0,473.25,270.0,1762.75,1261.75,4
-186.0,74.75,-205.0,-191.75,740.25,759.5,16.0,1001.25,4
-150.0,53.25,-158.0,-135.5,1025.5,965.0,20.0,711.75,4
-147.75,68.25,-151.0,-118.0,1396.75,1149.5,18.25,346.25,4
-163.0,96.25,-130.25,-78.0,1727.25,1256.25,31.5,101.0,4
-190.25,140.5,-161.0,-135.5,1649.0,1237.5,76.75,-48.25,4
-201.0,163.75,-175.75,-111.75,1832.25,1398.25,184.5,-25.5,4
-189.25,86.5,-148.0,-72.0,1936.75,1358.0,325.25,232.25,4
-185.5,94.75,-146.0,-112.0,1761.25,1131.75,433.5,431.75,4
-180.75,125.0,-160.0,-137.5,1882.75,856.75,1598.75,438.5,4
-157.25,31.5,-92.0,-28.5,2330.5,648.25,2556.25,359.0,4
-173.25,-45.5,-29.75,33.0,2113.5,271.75,2592.5,350.5,4
-224.75,-24.75,-39.0,5.75,1779.75,-296.75,2610.0,71.5,4
-246.5,-18.25,5.5,40.75,1733.25,-589.25,2572.5,-166.25,4
-279.25,-29.5,50.75,39.5,1686.75,-733.5,2356.25,-159.25,4
-306.25,-23.25,96.25,66.0,1781.5,-951.0,1315.25,-133.5,4
-327.75,-24.75,133.0,64.75,1774.0,-1173.75,468.75,-147.75,4
-369.25,6.75,147.25,36.25,1807.25,-1231.25,399.5,-249.5,4
-383.75,13.75,162.25,7.0,1810.25,-1378.75,355.5,-440.75,4
-386.0,15.0,119.75,-13.75,1828.25,-1467.0,307.75,-648.75,4
-361.0,31.25,76.75,-27.25,1844.0,-1527.0,252.25,-812.5,4
-319.75,34.25,32.75,-44.0,1845.5,-1572.75,164.5,-976.25,4
-281.75,52.75,-29.5,-64.25,1900.75,-1513.25,-79.75,-1143.25,4
-196.25,77.75,-92.0,-77.75,1880.0,-1402.5,329.75,-1379.75,4
-123.5,90.0,-121.75,-68.0,1911.5,-1224.75,865.0,-1502.0,4
-84.0,106.25,-169.5,-74.0,1987.75,-1010.25,1216.0,-1539.25,4
-0.75,126.5,-180.5,-36.25,2140.75,-826.25,1047.5,-1549.75,4
81.25,167.0,-175.0,-47.75,2184.5,-695.75,871.25,-1346.0,4
152.0,178.5,-194.0,-64.5,2343.0,-486.75,638.0,-914.0,4
218.0,145.25,-182.0,-69.5,2405.75,-325.75,324.75,-476.0,4
248.75,121.75,-173.5,-77.0,2170.5,-154.0,-4.75,-113.5,4
278.75,90.5,-158.75,-91.5,1091.0,157.0,-235.5,317.0,4
283.5,54.5,-164.5,-106.75,175.0,427.0,-260.75,324.75,4
279.0,-10.75,-167.0,-32.5,340.5,744.75,-287.75,287.75,4
248.75,-116.0,-143.5,-26.25,361.75,999.5,-311.25,275.5,4
170.5,-188.0,-114.75,-54.5,283.75,1098.75,-330.0,273.5,4
106.0,-233.75,-74.25,-45.25,284.25,1158.75,-352.0,298.5,4
47.25,-285.5,-59.0,-55.5,230.25,1243.0,-368.5,333.75,4
27.0,-267.0,-64.25,-53.5,201.0,1227.0,-373.5,375.75,4
49.75,-193.0,-86.5,-81.75,207.75,1194.0,-379.25,381.0,4
73.25,-110.5,-114.0,-92.25,81.5,1200.0,-416.0,393.25,4
116.75,-23.0,-154.75,-125.75,-30.75,1135.0,-465.25,504.75,4
179.25,30.0,-186.0,-153.5,-71.5,1045.0,-405.25,755.25,4
211.25,33.5,-167.0,-122.25,-350.0,784.25,-293.5,1031.75,4
199.75,45.25,-192.0,-181.75,-1237.0,323.25,-153.5,1245.75,4
-122.75,239.0,-359.25,-498.75,-2215.0,-269.75,-21.0,1383.75,4
-276.25,240.75,-273.0,-461.25,-1339.25,-12.75,-139.0,510.75,4
766.5,-633.25,296.25,214.0,-948.0,560.25,-268.0,46.25,4
731.0,-778.25,361.75,200.25,-1192.25,40.0,-73.0,500.75,4
405.25,-268.5,223.5,98.75,-1125.25,-70.25,-24.75,358.75,4
711.75,-315.0,350.75,212.25,-1352.5,-116.25,74.75,419.25,4
380.5,-71.5,254.0,59.0,-1603.75,-346.25,214.75,378.25,4
372.25,-160.75,298.0,129.5,-1239.75,-239.75,296.5,137.75,4
268.0,-67.5,238.75,47.75,-1424.0,-461.0,450.75,-83.25,4
116.25,-67.25,231.0,77.0,-1047.75,-337.0,560.25,-451.25,4
180.75,-163.75,210.5,41.75,-1133.75,-421.75,779.25,-608.5,4
28.25,42.0,144.25,26.25,-1183.5,-358.5,1019.5,-1194.5,4
112.25,55.5,140.25,40.25,-1159.5,-339.75,1272.25,-1688.5,4
-38.5,134.0,42.0,-5.5,-838.75,-380.5,1435.0,-1745.75,4
49.25,44.75,-2.5,51.75,-521.75,-397.25,1332.0,-1669.0,4
-30.25,12.0,-40.0,1.25,-321.0,-436.75,1055.0,-1662.0,4
-19.75,-10.75,16.25,-6.75,-130.0,-229.75,831.25,-1662.5,4
-48.5,24.25,0.0,-24.5,-117.5,-183.75,663.0,-1332.5,4
-18.25,70.0,1.0,-0.75,-86.0,-14.0,424.75,-528.5,4
17.75,119.25,31.75,58.25,-335.5,65.0,64.75,401.0,4
-37.0,164.5,66.75,114.5,-64.75,100.25,-190.5,402.25,4
-33.75,247.5,27.0,81.25,130.5,15.0,-27.5,451.25,4
-98.5,279.5,-29.25,86.75,625.0,-103.25,28.25,421.5,4
-61.0,204.25,33.0,94.75,1058.75,-173.0,91.75,898.25,4
-148.0,137.0,23.5,79.75,1139.75,-245.25,226.75,1438.75,4
-205.25,-17.0,-15.0,64.75,1224.5,-301.0,143.25,2006.0,4
-264.5,-51.0,-70.75,-14.5,864.75,-379.25,-127.0,2521.75,4
-194.5,-13.0,-103.0,-81.5,561.25,-190.75,-186.5,2482.25,4
-142.75,59.5,-127.75,-169.5,510.0,-141.5,-233.5,2473.25,4
-142.75,33.0,-108.0,-182.0,685.0,-701.5,-285.0,2394.0,4
-66.0,16.25,-39.0,-159.0,1199.5,-776.0,-257.25,2347.0,4
-57.5,-1.75,-8.25,-112.75,2057.5,-752.25,-277.5,2314.0,4
-34.25,-62.75,7.25,-66.25,2041.25,-651.25,-323.75,2314.5,4
-11.75,-29.5,5.25,-42.5,1950.75,-558.75,-345.25,2288.5,4
65.75,7.5,-4.0,-27.25,2013.5,-539.75,-264.25,2266.75,4
84.25,11.25,-20.25,-9.0,2070.75,-38.0,-71.25,2256.25,4
81.0,6.5,-60.5,6.5,2027.75,147.75,194.25,2218.5,4
89.75,21.5,-80.0,8.75,2066.5,39.5,510.0,2167.75,4
70.75,-74.25,-48.25,26.25,2035.75,-175.75,937.25,2133.75,4
8.75,-81.25,-30.25,-6.75,1958.0,-217.0,1083.75,2108.0,4
-28.0,-41.75,-15.0,-43.5,1998.0,-301.75,1011.25,1865.25,4
-44.75,-93.5,1.75,-32.5,1994.0,-409.75,938.25,1495.25,4
-66.25,-78.75,7.0,-17.25,1998.0,-554.0,858.75,1132.5,4
-42.0,-27.25,9.25,-26.5,1974.0,-727.0,856.0,771.75,4
-84.75,77.25,-3.25,-18.5,1980.5,-682.25,908.5,404.75,4
-107.75,164.25,13.75,20.0,2020.0,21.0,1051.25,158.5,4
-78.5,196.75,41.75,11.0,2075.75,684.0,1147.0,-7.5,4
-81.0,217.5,31.75,8.0,2030.25,1318.25,1161.5,-30.0,4
-170.25,164.0,39.5,39.75,1944.5,1418.75,1211.75,-22.25,4
-284.75,83.0,50.75,41.0,1570.25,1422.75,1280.5,66.25,4
-316.25,44.0,42.25,12.0,1212.25,1394.5,1334.5,61.75,4
-294.25,5.25,47.75,24.0,1442.25,1099.25,1356.75,182.25,4
-226.25,-19.0,39.75,34.0,1368.25,703.75,1219.25,228.0,4
-146.5,-36.75,23.5,5.0,375.5,278.75,1098.75,228.25,4
12.75,15.75,7.75,-23.75,-1025.75,-30.5,1090.0,17.5,4
210.75,73.75,-24.5,-32.75,-1623.5,-244.0,990.0,-876.5,4
370.5,65.5,-51.0,-71.25,-1979.25,-332.25,496.5,-1783.75,4
475.0,68.25,-74.25,-96.75,-2162.25,-285.0,-64.5,-1874.25,4
493.0,18.0,-81.75,-1.0,-2260.5,-272.75,-496.25,-1927.5,4
434.5,-95.5,-88.25,-18.5,-2198.75,-220.5,-919.25,-1975.25,4
308.5,-138.5,-96.25,-196.0,-2210.5,-194.75,-1056.25,-1985.5,4
185.5,-48.5,-99.25,-269.5,-2380.5,-186.0,-861.75,-1953.75,4
87.5,-42.5,-82.25,-251.0,-2370.0,-176.25,-418.0,-1876.0,4
-15.25,-100.75,-38.25,-195.75,-2306.0,-220.5,-83.0,-1770.0,4
-85.25,-110.5,-38.0,-121.75,-2284.75,-106.5,-125.25,-1691.0,4
-142.25,-213.0,-33.25,-7.75,-1193.0,117.75,-447.75,-1644.75,4
-185.5,-206.0,7.5,68.75,-531.25,306.0,-1010.0,-1542.0,4
-212.75,-108.5,-5.0,50.25,-766.75,402.0,-1107.5,-1411.75,4
-147.75,-132.5,-7.25,68.0,-771.75,498.25,-1085.5,-1238.25,4
-126.5,-92.25,-27.5,37.25,-1137.75,517.0,-1079.0,-1012.25,4
-146.75,25.0,-80.25,-7.0,-1496.5,619.25,-1049.0,-833.0,4
-61.25,111.5,-128.25,-6.25,-1689.0,771.5,-1035.75,-665.5,4
-42.75,98.5,-159.75,33.0,-1826.75,876.0,-1124.0,-553.0,4
-57.5,100.75,-148.0,11.5,-1828.0,1020.75,-1154.25,-500.75,4
-36.0,114.25,-150.5,-34.0,-1744.75,1149.5,-1099.0,-386.25,4
-3.75,56.25,-150.5,-0.5,-1741.0,1198.75,-1151.5,-372.75,4
0.5,15.0,-115.75,-1.5,-1722.5,1231.0,-1305.0,-429.5,4
-11.25,-14.75,-95.25,0.25,-1695.5,1158.25,-1471.5,-453.0,4
-24.5,-16.25,-37.25,0.75,-1712.0,1056.75,-1527.25,121.75,4
-44.75,-21.0,7.0,-25.0,-1779.0,986.25,-1522.0,705.25,4
-88.5,-32.75,-6.5,-33.5,-1844.0,774.75,-1519.25,827.75,4
-128.75,-52.75,4.0,-28.75,-1996.5,648.0,-1379.5,691.0,4
-111.0,-63.25,-43.75,-34.75,-2245.0,497.5,-1126.25,566.0,4
-69.5,-71.0,-36.0,-31.0,-2469.25,262.5,-817.5,380.5,4
0.25,-24.75,35.5,-24.0,-2428.25,136.5,-567.5,149.75,4
92.75,147.25,83.0,-38.75,-2082.5,19.5,-610.5,-7.25,4
185.0,157.75,173.25,-22.25,-1731.5,-144.25,-803.5,-91.75,4
192.5,62.75,215.75,-14.75,-1416.75,-226.5,-943.0,-180.5,4
162.75,76.5,247.5,-23.0,-1174.5,-275.75,-1019.75,-267.25,4
126.5,99.0,268.5,-13.75,-1251.0,-462.75,-926.0,-301.5,4
69.0,44.75,280.5,-9.0,-1394.0,-570.5,-834.5,-321.75,4
39.25,25.25,198.25,-35.25,-1531.0,-590.75,-830.0,-338.0,4
72.75,50.75,75.75,-43.0,-1560.25,-656.5,-907.0,-355.5,4
115.25,45.0,86.5,-18.75,-1541.0,-710.5,-1032.0,-334.25,4
76.5,-27.75,82.5,-20.5,-1670.5,-815.5,-1052.25,-315.0,4
27.25,-158.0,62.0,-18.25,-1831.75,-960.0,-1033.75,-421.5,4
-21.25,-149.75,66.75,-22.75,-2003.75,-1023.25,-1009.75,-635.75,4
-6.75,-73.25,90.0,-4.25,-1926.75,-929.25,-976.0,-711.0,4
2.75,-20.75,135.75,35.0,-1844.5,-780.5,-911.25,-743.25,4
-52.5,-76.5,122.75,51.0,-1835.25,-816.75,-885.5,-719.5,4
-89.0,-237.75,109.5,54.25,-1790.25,-750.0,-949.75,-674.25,4
-3.5,-284.25,79.25,55.25,-1831.25,-701.5,-1019.25,-634.25,4
79.75,-125.75,41.0,61.25,-1745.5,-682.0,-1061.75,-686.75,4
3.5,-31.75,29.5,73.75,-1630.25,-655.5,-1015.5,-815.0,4
-53.5,-47.0,-16.0,65.5,-1524.0,-667.0,-967.25,-949.0,4
-123.0,-0.75,-45.25,59.25,-1386.25,-631.5,-941.5,-1127.5,4
-165.0,-3.0,-15.0,64.5,-1271.0,-673.0,-916.25,-1310.25,4
-173.75,22.25,-8.5,56.5,-1004.0,-611.75,-911.0,-1249.5,4
-164.5,41.75,-12.0,40.5,-387.75,-441.25,-882.75,-1237.75,4
-137.5,60.25,31.5,44.5,-117.75,-338.0,-911.25,-1198.75,4
-143.75,84.75,70.5,60.0,-98.0,-270.75,-920.0,-1041.0,4
-105.25,73.5,125.75,54.25,70.75,-168.0,-739.5,-659.0,4
-98.75,72.75,87.25,38.25,422.75,-63.25,-453.25,-230.0,4
-98.0,59.5,15.0,10.75,570.0,-66.0,-152.5,251.75,4
-100.5,75.0,-13.75,-20.25,744.5,-186.5,107.75,808.0,4
-79.25,65.5,-8.75,-42.25,827.5,-267.5,249.75,809.75,4
-34.75,60.5,-16.75,-43.5,897.75,-166.5,298.25,817.0,4
-18.0,81.5,-43.5,-39.0,1065.5,-89.25,337.5,808.0,4
-29.0,101.5,-39.25,-37.5,1209.0,10.0,541.0,816.25,4
-24.0,92.75,-101.0,-77.75,1399.0,7.75,961.25,837.0,4
-2.0,77.25,-121.75,-95.25,1667.5,-250.0,936.75,866.0,4
9.75,80.25,-119.0,-77.5,2028.25,-585.75,936.75,904.75,4
47.25,47.25,-152.5,-112.5,2170.25,-1059.0,961.5,893.5,4
59.25,57.75,-148.75,-125.0,2199.25,-1308.5,970.75,808.25,4
73.0,35.5,-101.75,-99.0,2225.75,-1243.75,943.25,785.25,4
81.0,-12.25,-63.0,-70.25,2183.5,-1349.25,934.25,826.5,4
106.0,15.25,-71.75,-80.0,2193.25,-1344.25,866.0,849.0,4
177.25,34.5,-97.75,-67.5,2188.75,-1118.25,840.25,858.0,4
254.75,34.5,-108.0,-49.0,2172.0,-997.25,892.25,882.75,4
233.75,45.5,-102.25,-43.5,2115.25,-905.25,908.25,676.5,4
119.0,38.0,-84.0,-22.25,2080.75,-783.75,950.25,469.25,4
38.5,42.75,5.75,-16.0,2098.75,-718.0,989.5,298.5,4
-35.25,36.5,62.5,14.0,2076.0,-712.5,995.75,105.25,4
-48.0,-6.5,-6.25,56.0,2041.75,-629.25,994.5,-9.75,4
-77.5,-51.75,-80.25,44.25,2001.75,-514.5,980.25,-130.5,4
-107.25,-120.5,-158.25,12.25,2012.25,-402.0,948.25,-198.25,4
-105.0,-134.75,-209.5,-13.75,2009.25,-258.5,929.0,-286.5,4
-119.0,-111.25,-164.75,-16.0,1962.25,-145.75,701.5,-436.0,4
-88.25,-131.75,-99.75,2.0,1874.5,-67.75,549.0,-536.5,4
-64.75,-122.75,-5.5,15.5,1599.0,-51.75,630.0,-623.25,4
-48.75,-103.0,85.75,39.75,1536.25,-69.5,887.25,-664.5,4
-54.75,-75.5,139.0,63.25,1684.75,-41.5,942.0,-709.5,4
-57.0,-26.0,201.25,42.5,1758.25,72.75,954.75,-720.25,4
-74.25,-13.75,230.5,5.25,1741.5,188.0,994.25,-822.5,4
-93.25,1.25,162.0,7.25,1796.25,276.0,1029.0,-1036.0,4
-84.5,18.0,194.0,12.0,1938.25,322.0,1044.0,-1242.0,4
-86.0,49.0,226.25,17.75,2006.0,340.0,1019.0,-1332.0,4
-74.0,76.5,132.0,-4.0,1829.0,334.0,970.75,-1240.5,4
-61.5,68.0,41.75,-43.0,1700.75,292.25,842.5,-1208.5,4
-38.75,67.75,8.5,-20.0,1581.25,273.5,719.25,-1220.75,4
-36.75,41.0,-39.0,-3.25,1375.75,307.25,754.5,-1158.0,4
-59.75,3.5,-183.75,-31.75,1275.5,413.75,933.75,-1103.5,4
-105.25,-24.5,-211.25,-61.25,1179.75,556.25,1131.5,-1084.75,4
-121.75,-70.5,-149.5,-62.0,1270.25,768.25,1186.5,-1005.75,4
-43.5,-115.5,-71.25,-53.75,1215.75,982.5,1181.75,-920.5,4
47.5,-135.5,107.5,-26.25,988.75,1192.75,1141.0,-895.75,4
114.0,-151.75,265.75,12.75,993.75,1413.0,1093.75,-829.25,4
148.25,-136.75,242.5,26.75,1312.0,1545.5,1006.75,-835.25,4
173.5,-91.75,194.75,44.0,1589.25,1573.75,898.25,-861.5,4
122.5,-18.75,184.0,22.5,1439.75,1630.0,745.75,-888.5,4
49.75,63.25,236.5,9.5,1535.5,1669.5,580.0,-885.25,4
5.75,102.0,231.75,25.0,1836.25,1703.75,426.75,-855.75,4
-52.0,156.0,39.75,17.75,1861.0,1738.0,411.25,-865.75,4
-87.25,204.25,-210.25,-14.5,1747.0,1768.0,288.25,-852.75,4
-82.75,122.5,-535.5,-58.0,1395.25,1751.75,-99.0,-795.75,4
-127.75,-51.75,-732.25,-63.75,1004.5,1694.25,-411.25,-732.75,4
-179.0,-128.25,-702.25,-77.75,680.5,1672.75,-629.75,-689.5,4
-173.25,-97.25,-595.25,-81.75,361.5,1722.75,-707.25,-607.5,4
-188.5,-73.25,-368.25,-16.25,131.25,1642.0,-626.75,-591.5,4
-148.0,-60.5,14.75,49.5,-117.0,1418.75,-555.5,-607.75,4
-102.75,-69.75,313.75,44.0,-188.0,1216.5,-542.75,-618.5,4
-40.0,-39.5,393.75,25.75,-177.5,1030.0,-548.75,-638.0,4
3.75,4.75,364.25,-20.0,-101.5,803.5,-603.0,-597.5,4
-7.25,63.75,375.25,-87.25,-35.75,583.75,-642.0,-538.5,4
8.5,123.0,373.25,-164.75,55.0,394.0,-627.75,-520.0,4
0.75,136.5,413.75,-182.75,140.5,231.75,-559.5,-489.5,4
56.25,144.0,567.75,-117.0,186.75,89.25,-516.75,-419.75,4
72.75,118.25,600.0,-46.25,229.25,-86.5,-562.5,-367.25,4
75.25,97.5,436.75,-31.0,308.75,-151.75,-536.25,-341.25,4
82.75,93.75,214.75,-30.5,337.0,-184.25,-530.5,-346.25,4
22.0,73.25,58.25,-3.25,24.75,-235.75,-494.5,-310.0,4
-44.5,58.0,23.75,-18.5,-373.5,-260.75,-568.75,-190.75,4
-60.5,48.5,-91.25,12.75,-449.25,-272.5,-780.25,-50.25,4
-9.0,9.75,-159.5,41.0,-817.25,-358.5,-917.0,151.0,4
-33.0,-20.75,-225.75,-21.75,-1240.5,-480.0,-1011.25,313.0,4
-52.0,-24.75,-381.0,-77.0,-1267.75,-506.25,-983.75,355.5,4
-27.25,-42.75,-372.0,-93.75,-1483.75,-579.5,-1062.75,355.0,4
49.5,-45.0,-280.25,-55.25,-1682.75,-585.0,-1080.0,305.0,4
89.5,-37.5,-116.0,30.0,-1476.25,-489.5,-942.25,273.25,4
61.25,-1.5,-83.75,103.75,-1523.0,-349.75,-726.0,313.5,4
36.5,8.75,-194.75,108.0,-1568.25,-147.0,-428.0,392.75,4
14.25,6.0,-138.75,104.75,-1641.25,-11.75,-419.5,372.25,4
-2.75,-13.0,-43.0,115.5,-1672.0,110.0,-651.25,306.25,4
-24.75,-77.5,-73.75,112.5,-1740.25,231.0,-960.25,253.0,4
-49.75,-146.5,-82.0,96.75,-1899.0,300.0,-1030.5,194.25,4
-68.0,-143.75,-76.5,79.5,-2024.75,469.25,-842.5,118.25,4
-51.0,-54.25,-33.75,75.5,-2071.25,690.25,-946.5,14.75,4
-42.5,-35.5,19.25,4.75,-2125.0,842.75,-1009.25,-26.5,4
-0.75,-15.5,-43.0,-66.0,-2082.25,851.0,-1191.0,-75.0,4
41.75,73.0,-92.75,-81.75,-2289.25,739.25,-1684.0,-70.5,4
-4.0,76.0,-144.25,-70.25,-2379.5,672.75,-1824.25,-31.75,4
-45.5,55.25,-201.25,-73.75,-2291.75,643.5,-1417.25,16.5,4
-88.0,72.5,-222.0,-125.25,-2512.5,511.25,-1093.5,0.0,4
-163.0,69.75,-275.5,-199.5,-2494.5,432.75,-1105.0,-94.0,4
-189.0,101.25,-318.75,-240.25,-2198.25,466.0,-1059.25,-94.0,4
-125.5,82.5,-274.75,-164.5,-1468.0,637.0,-1034.75,-208.5,4
-5.5,-5.75,-171.25,-34.5,160.5,811.25,-919.0,-155.0,4
37.0,-20.0,-172.5,-13.0,955.5,802.75,-769.25,60.0,4
27.5,24.75,-193.25,-78.75,540.0,797.75,-542.75,237.5,4
87.75,71.25,-124.75,-151.0,315.5,906.0,-372.75,498.75,4
196.0,95.75,-153.0,-173.5,261.75,982.25,-561.75,740.5,4
180.25,89.5,-366.5,-150.0,369.0,961.25,-913.75,968.25,4
28.5,132.75,-685.75,-192.0,299.5,747.0,-1183.5,1279.5,4
-138.25,246.25,-953.5,-265.0,491.5,375.0,-1406.5,1637.5,4
-237.5,375.25,-1126.5,-332.0,684.25,17.25,-1555.75,1871.0,4
-231.25,492.25,-1071.25,-361.75,760.75,6.0,-1603.75,1834.75,4
-211.0,521.0,-777.25,-328.25,344.0,235.25,-1471.75,1771.5,4
-147.75,433.0,-486.5,-246.0,-1089.5,399.25,-1044.0,1660.5,4
-85.0,299.25,-198.5,-149.75,-788.75,716.25,-421.25,1515.25,4
-46.25,173.5,-133.25,-72.0,-623.5,821.25,296.75,1412.25,4
37.5,78.5,-163.0,-8.5,-526.25,912.0,464.75,1261.5,4
132.5,-2.25,-36.5,33.0,-322.75,1034.25,705.25,1080.0,4
226.5,-138.25,165.75,101.75,-307.5,989.25,729.25,933.0,4
264.75,-218.0,206.25,150.25,-506.75,851.75,811.25,888.25,4
171.75,-212.25,179.0,158.25,-757.5,558.75,1040.25,943.75,4
113.5,-159.0,143.75,128.0,-1174.5,212.25,1438.0,901.5,4
100.75,-76.5,55.25,67.5,-1631.0,-242.5,1390.0,859.0,4
-2.75,-82.25,191.25,73.25,-1697.25,-703.25,1077.25,754.0,4
-28.75,-129.5,426.5,89.25,-1777.75,-940.25,1069.25,693.5,4
-115.75,-169.0,582.25,89.75,-1809.75,-964.0,1297.75,630.5,4
-196.75,-222.5,604.5,94.0,-1800.0,-945.0,1235.5,623.0,4
-196.5,-226.0,575.25,72.0,-1032.0,-913.0,583.25,705.0,4
-287.5,-253.5,512.75,56.5,337.75,-806.25,-69.75,841.75,4
-369.75,-286.5,457.0,39.0,383.75,-733.5,-128.75,1066.0,4
-431.5,-296.75,522.5,16.0,471.0,-646.0,-36.5,1083.5,4
-426.75,-330.75,611.75,12.0,534.25,-558.5,-102.75,1062.0,4
-445.75,-306.75,747.0,23.0,566.25,-503.75,-22.75,1032.0,4
-485.75,-234.0,867.75,45.0,518.5,-437.75,414.75,1011.25,4
-514.75,-186.25,847.0,68.25,454.5,-395.5,848.75,996.0,4
-577.75,-158.75,781.0,131.75,327.75,-420.25,1005.5,978.25,4
-610.0,-116.75,706.25,209.25,104.0,-436.5,1011.0,896.25,4
-555.5,-84.75,645.5,263.0,-93.75,-392.75,733.25,564.75,4
-363.25,-66.75,603.0,276.75,-200.5,-284.25,584.75,234.5,4
-162.25,-74.5,565.75,260.75,-135.5,-143.5,398.75,-43.25,4
79.0,13.25,547.25,241.25,2.25,-14.5,86.0,-218.25,4
306.25,27.75,502.0,224.0,-70.5,-6.0,42.0,-315.25,4
503.5,27.5,513.25,190.5,-84.75,-50.25,-4.5,-313.5,4
673.75,83.75,612.25,129.0,-93.0,-121.0,-1.0,-315.75,4
689.5,-9.5,752.5,99.0,-80.25,-215.75,210.0,-378.25,4
579.5,67.0,966.25,43.25,-57.0,-313.25,296.0,-478.5,4
495.5,-38.75,1058.75,-8.5,-45.75,-432.75,182.75,-599.5,4
469.5,-182.75,979.5,3.25,-37.75,-548.75,196.75,-661.25,4
420.5,-104.0,337.0,38.0,-7.5,-686.75,-45.5,-664.0,4
395.0,-110.25,123.25,84.75,373.0,-658.5,-671.5,-636.5,4
358.75,-364.75,-29.75,80.5,1477.0,-453.5,-1051.5,-596.75,4
267.5,-678.75,-158.0,312.0,2416.0,-498.0,-959.5,-1060.25,4
580.75,-696.75,-163.5,528.5,2395.5,-574.75,-940.25,-1139.75,4
684.0,-625.5,-364.0,472.0,2411.0,-556.25,-1336.0,-924.5,4
512.5,-531.75,-445.75,411.0,2361.25,-575.75,-1533.25,-849.0,4
523.5,-199.0,-474.75,373.0,2180.25,-616.25,-1344.75,-538.5,4
439.0,-66.0,-585.75,125.75,1978.75,-506.5,-462.75,-432.5,4
288.0,163.5,-861.75,84.0,1790.75,-290.75,250.0,-503.75,4
243.5,318.5,-1303.25,-37.5,1703.5,-151.5,601.5,-605.5,4
48.0,452.5,-1495.0,2.5,1531.75,-204.5,1011.75,-740.0,4
46.25,488.0,-1647.5,-33.25,1219.5,-130.25,905.75,-758.75,4
-82.75,463.5,-1339.5,-73.5,909.75,-63.75,893.0,-882.75,4
-86.0,298.0,-945.25,-119.5,958.75,-29.75,409.0,-914.0,4
-133.75,138.5,-669.75,-186.0,1381.25,-19.25,-159.5,-1067.25,4
-131.75,94.25,-408.5,-179.75,1321.0,-9.75,-529.0,-1078.75,4
-148.25,-175.75,-290.25,-215.0,1261.5,45.5,-841.5,-1075.75,4
-172.25,-398.5,-136.25,-202.75,1160.0,93.0,-906.75,-1038.25,4
-145.0,-504.5,-112.25,-225.5,949.25,69.5,-638.75,-1007.75,4
-147.25,-241.5,55.5,-225.75,700.75,59.25,-237.75,-999.5,4
-51.5,244.25,170.5,-242.75,714.75,100.75,294.0,-919.5,4
-45.5,408.5,200.25,-212.0,636.5,113.5,185.25,-928.0,4
-75.0,395.75,187.25,-211.25,409.5,125.25,-506.25,-869.5,4
-77.75,373.5,16.25,-263.25,466.0,195.75,-396.5,-856.0,4
-117.0,332.25,-75.0,-273.0,558.75,404.0,93.5,-827.25,4
-225.0,354.75,-132.0,-233.5,157.75,719.75,106.0,-857.0,4
-238.0,375.0,-159.25,-199.75,-319.5,1005.5,60.25,-981.75,4
-255.0,290.0,-221.25,-203.75,-292.5,1189.5,-110.75,-1175.75,4
-280.0,186.0,-324.25,-199.25,-270.0,1395.25,-102.75,-1279.75,4
-274.0,191.75,-435.5,-195.5,-240.0,1613.0,263.25,-1222.25,4
-285.75,102.5,-421.75,-183.75,-211.5,1664.25,673.25,-1239.75,4
-246.75,63.25,-254.0,-179.75,-182.75,1585.75,1034.75,-1216.5,4
-236.75,193.0,-32.25,-128.75,-159.75,1332.0,1930.25,-1229.75,4
-230.0,178.75,70.5,-122.5,-130.0,966.0,1938.0,-1265.5,4
