0,1,2,3,4,5,6,7,label
-10.75,-27.75,438.5,-125.75,1768.75,-2296.5,-1435.0,-180.75,5
88.0,-81.75,617.25,-235.25,1819.0,-2171.75,-1375.0,-324.5,5
184.25,-121.75,583.5,-380.0,1997.0,-1670.5,-1587.5,-267.5,5
134.0,-130.25,276.5,-322.75,1830.5,-1523.0,-1424.5,-284.5,5
-85.75,-75.25,-4.75,-316.5,1631.0,-1471.75,-1277.75,-521.75,5
-222.5,-31.0,-248.25,-159.25,1845.5,-1216.25,-1138.5,-804.5,5
-237.25,-35.0,-386.5,-13.75,1825.5,-1155.0,-990.5,-905.0,5
-135.75,-18.0,-407.25,-62.25,1714.0,-958.5,-1002.25,-834.5,5
85.75,-9.25,-559.5,-115.25,2152.25,-634.5,-942.5,-844.5,5
348.75,-52.25,-404.75,-165.0,2144.0,-554.5,-451.25,-753.5,5
481.5,-49.0,109.25,-233.0,2265.75,-665.75,6.0,-820.0,5
703.0,-98.25,172.25,-234.0,2840.5,-553.0,235.25,-1045.0,5
786.5,-159.75,-255.25,-192.5,2732.25,-690.25,429.0,-1112.5,5
562.5,-117.0,-549.75,-210.25,2086.0,-746.5,616.5,-1246.75,5
453.5,-99.25,-721.0,-167.0,1646.5,-574.0,869.25,-1388.25,5
350.75,-52.25,-714.5,-23.0,1288.75,-365.75,918.0,-1080.75,5
286.75,-36.75,-667.75,84.25,967.0,-241.5,927.5,-193.5,5
144.0,18.0,-628.5,-2.75,472.5,-242.0,944.5,545.75,5
208.0,31.25,-347.75,-69.75,996.25,70.75,924.0,708.75,5
268.5,12.5,93.5,-75.75,959.25,520.75,946.0,963.75,5
212.25,52.5,409.0,-31.0,499.5,1001.75,916.0,1120.25,5
234.75,22.0,464.25,89.5,114.5,1112.0,884.0,1151.25,5
232.5,12.25,613.5,76.0,-330.0,1166.5,888.75,1161.5,5
335.0,-12.0,474.5,-129.75,-111.5,1329.5,1152.5,1062.5,5
439.5,-37.25,30.75,-119.0,-310.25,1442.25,1666.0,881.25,5
560.5,-16.0,-416.5,65.25,-450.0,1476.75,2006.0,734.75,5
624.25,-0.25,-673.5,56.25,-772.25,1437.25,2310.0,683.75,5
555.75,19.75,-664.75,117.5,-1264.0,1387.25,2817.75,838.25,5
470.75,57.5,-394.5,118.0,-1464.5,1386.5,2944.25,909.5,5
472.25,37.75,142.5,24.25,-1395.0,1476.5,2877.5,996.25,5
451.5,15.25,96.75,-9.0,-1346.5,1382.75,2766.5,526.5,5
471.5,33.75,50.25,-107.5,-1339.5,1323.5,2679.0,105.75,5
311.25,29.25,323.5,-181.25,-1175.25,1104.25,2612.5,-292.0,5
153.25,34.75,552.75,-156.0,-829.0,1148.0,2617.75,-617.0,5
173.5,37.0,962.5,-92.0,-667.25,1782.75,2718.0,-764.75,5
186.0,15.25,1084.0,-47.5,-511.25,2182.75,2798.75,-927.0,5
208.0,-14.0,995.25,-15.0,-169.75,1271.25,2806.0,-959.25,5
274.75,-5.0,589.25,5.0,-165.25,822.75,2770.75,-1054.25,5
328.75,14.75,407.75,7.0,-260.5,2319.75,2691.5,-1106.25,5
134.75,5.25,298.0,40.75,-358.0,2191.5,2611.25,-916.5,5
-9.5,38.0,-482.0,82.5,-167.25,2168.5,2605.25,-914.25,5
-241.5,81.75,-1074.5,69.75,100.25,2145.75,2636.5,-780.5,5
-492.5,122.5,-1083.25,23.0,862.0,1407.0,2618.5,-727.25,5
-556.75,131.75,-1007.25,-45.0,918.0,1682.75,2531.75,-810.25,5
-467.25,99.25,-982.25,-100.75,824.5,2119.25,2482.25,-1022.75,5
-193.5,84.5,-1032.0,-82.75,695.5,2085.0,2600.25,-1265.5,5
40.25,53.25,-1001.5,-8.25,674.25,2062.5,2650.0,-1192.5,5
212.75,60.5,-949.0,48.25,524.75,1982.75,2629.0,-1448.5,5
147.25,45.75,-728.75,116.75,632.25,2012.5,2625.0,-1693.25,5
3.0,49.0,-429.25,133.75,497.25,1257.25,2652.75,-1448.5,5
-19.0,68.25,156.75,44.75,696.25,-96.5,2708.0,-1116.25,5
-19.25,27.5,1190.25,-2.0,1086.5,-525.0,2690.25,-736.75,5
32.0,-6.75,1408.75,32.0,1164.25,-940.5,2668.5,-643.75,5
-24.25,-31.75,1330.25,49.75,1071.0,-1276.5,2604.5,-651.25,5
-152.5,4.0,1259.5,71.5,631.25,-1493.25,2536.5,-715.5,5
-168.25,33.75,1043.75,101.0,262.75,-1471.25,2476.75,-805.5,5
-276.5,66.0,803.0,76.75,-188.5,-1611.25,2445.75,-690.5,5
-331.5,104.25,472.75,60.75,50.75,-1662.75,2305.0,-729.25,5
-237.0,65.25,114.75,77.0,1082.5,-1475.25,1870.5,-560.0,5
-227.75,23.0,-308.5,62.5,1403.0,-1464.25,1340.75,-14.75,5
-692.0,288.75,-889.5,-160.5,1210.25,-1786.5,906.0,348.5,5
-923.75,509.75,-929.75,-251.75,2040.75,-1391.0,-33.25,-415.75,5
173.75,-196.75,222.5,155.25,2552.75,-334.5,-594.25,-768.25,5
365.0,-477.0,734.75,208.0,2331.75,-186.25,-402.75,-382.25,5
194.25,-128.0,828.5,125.25,2060.25,109.75,-525.0,-414.25,5
411.5,-316.25,1237.75,255.75,1713.25,563.75,-672.25,-253.5,5
71.0,-98.5,873.0,160.75,1384.0,557.75,-637.75,191.0,5
72.0,-108.0,534.0,193.25,874.5,640.5,-775.0,497.0,5
38.25,-13.25,-233.75,22.5,643.0,356.5,-767.75,839.5,5
-230.0,157.0,-924.5,-230.75,995.5,386.0,-1045.25,865.25,5
-116.5,85.0,-1228.5,-346.5,1904.0,269.75,-1259.5,815.75,5
99.75,13.0,-1033.0,-242.25,2534.25,-165.75,-1476.25,952.75,5
219.75,-111.75,-681.0,-125.0,2129.0,-905.75,-1502.5,1354.25,5
-63.75,-28.75,-410.5,-76.5,2018.0,-1285.0,-1547.0,1394.75,5
-0.75,-121.25,-228.0,-46.5,1335.75,-1405.5,-1560.75,1624.25,5
-128.25,-39.75,-350.0,-74.0,-808.25,-1619.0,-1521.75,1640.75,5
142.75,-115.0,-60.5,10.25,-847.25,-1605.0,-1654.0,1563.0,5
207.75,-120.75,-93.75,-9.75,-1658.0,-1605.0,-1712.0,1675.0,5
217.75,-67.25,81.75,0.5,-1531.75,-1314.25,-1751.5,1565.25,5
249.5,-73.75,640.75,20.5,-1794.5,-1290.25,-1685.0,1467.25,5
-135.75,-23.0,804.25,29.25,-1931.0,-1561.25,-1529.0,1266.5,5
-315.75,-0.75,698.0,17.75,-2242.5,-2028.75,-1293.75,1354.0,5
-384.25,97.5,634.75,-17.75,-597.0,-2073.75,-1172.5,1136.5,5
-298.25,77.0,531.75,-64.75,-518.0,-1854.25,-662.25,1015.5,5
-288.0,73.25,319.0,-105.5,-542.75,-1228.75,-79.5,900.5,5
-202.75,-16.0,366.25,-82.75,-647.5,-810.5,132.0,827.0,5
-169.75,-75.25,542.0,-55.5,-735.75,-578.5,361.75,914.25,5
-107.0,-94.0,375.25,15.25,-427.5,-463.75,351.0,783.25,5
-53.5,-39.5,-132.5,82.25,-575.25,-425.5,276.0,906.75,5
-90.25,64.5,-290.0,107.5,-838.5,-383.0,-31.5,882.75,5
-107.25,89.75,-243.0,88.75,-862.75,-620.25,-451.5,785.25,5
-171.25,124.0,-66.25,59.25,-2930.5,-947.25,-1030.0,652.5,5
-183.25,108.75,-144.0,64.0,-2889.25,-1027.75,-1600.25,920.5,5
-221.25,58.75,-238.25,39.0,-2978.0,-960.25,-1743.25,1557.5,5
-282.0,-1.0,-169.75,-35.0,-3004.75,-722.25,-1808.75,1844.75,5
-289.25,-7.5,-411.5,-89.5,-2786.0,-535.5,-1802.25,1970.0,5
-219.75,26.75,-337.25,-108.0,-1001.5,-510.75,-1793.0,1806.75,5
-199.5,13.5,-75.25,-96.25,-958.25,684.75,-1855.75,1447.75,5
-208.5,-17.5,-44.5,-64.0,-851.5,938.0,-1961.0,1038.75,5
-208.0,0.75,-230.5,5.0,-808.25,775.25,-2047.0,685.25,5
-237.5,54.25,-570.0,21.0,-903.5,681.25,-2093.75,611.5,5
-160.0,65.75,-871.0,32.75,-2416.0,581.5,-2194.25,481.5,5
-52.75,50.75,-625.25,31.5,-2242.25,526.75,-2371.75,236.5,5
-44.75,87.25,-472.5,2.75,-2419.5,475.0,-2457.75,-331.25,5
-104.0,71.25,-169.25,57.25,-2642.75,297.25,-2443.0,-704.5,5
-95.75,76.25,206.5,48.75,-2755.25,171.0,-2357.25,-1125.0,5
-37.0,65.0,428.25,34.5,-2595.5,192.5,-2326.75,-1580.25,5
9.25,33.75,718.5,34.25,-2354.75,253.5,-2299.75,-1940.75,5
44.25,54.5,789.25,46.75,-2049.0,-650.5,-2330.0,-2072.5,5
150.0,20.25,947.5,57.0,-1842.75,-1143.5,-2352.25,-1903.25,5
251.25,62.75,525.5,-12.0,-2296.25,-915.0,-2397.0,-1728.5,5
277.5,80.75,-208.0,-6.5,-2507.25,-969.0,-2378.25,-1579.5,5
269.25,61.5,-377.75,-7.0,-2119.25,-919.0,-2308.75,-1472.0,5
198.0,44.0,-317.75,-27.0,-1745.25,-790.5,-2245.75,-1648.5,5
128.5,-15.75,-250.0,47.5,-1516.0,-712.0,-2175.0,-1616.0,5
112.0,-18.75,-270.75,33.75,-1169.75,-562.5,-2117.25,-1741.5,5
137.5,-38.0,-12.25,-31.25,-297.75,-722.0,-2082.75,-1796.5,5
77.25,-9.25,-73.25,-110.75,-231.5,-834.75,-2067.5,-1751.5,5
202.0,39.5,-367.5,-127.75,74.5,-830.0,-1657.5,-1764.0,5
315.75,41.25,-467.0,-75.25,337.75,-767.75,-870.5,-1402.5,5
56.75,72.0,-64.5,-101.0,450.75,-414.25,-235.25,-975.5,5
-230.25,106.0,103.25,-122.25,204.0,19.5,272.0,-524.0,5
-635.0,132.0,-490.5,-160.75,153.0,487.0,715.0,-179.0,5
-729.5,47.75,-587.0,-91.0,523.0,818.25,1259.0,11.0,5
-703.0,-19.25,-795.0,-48.25,-310.5,927.75,1731.0,357.0,5
-690.25,8.75,-846.25,-89.75,-677.0,779.75,2002.75,632.0,5
-574.0,165.25,-853.0,-207.75,-1266.0,426.5,2186.5,998.0,5
-643.5,469.5,-965.0,-347.75,-1372.25,229.0,2303.5,1089.0,5
-595.0,676.25,-536.75,-407.0,-1206.5,277.5,2360.25,1070.5,5
-425.75,708.5,-456.5,-453.5,-1458.25,372.5,2232.75,1043.5,5
-38.25,488.75,-285.25,-438.5,-1219.0,452.0,2004.75,1067.5,5
347.25,171.0,136.0,-457.0,-861.0,619.5,1823.75,1095.75,5
306.5,68.75,411.75,-424.5,-492.5,881.5,1533.5,967.25,5
36.0,44.0,540.25,-232.75,-794.25,1117.25,1380.25,705.75,5
-184.75,127.75,646.75,-108.0,156.5,1407.5,1203.25,647.75,5
-174.75,65.25,868.25,-34.5,1985.0,1757.75,1111.5,709.0,5
-97.25,-16.75,806.25,25.5,2034.25,1879.5,1151.0,717.25,5
-30.0,-98.0,809.75,96.25,2176.0,1928.25,1012.0,800.75,5
5.0,-193.25,934.0,115.0,2876.25,1953.0,876.0,864.75,5
129.5,-369.75,989.25,120.75,2686.25,2143.0,816.0,1032.75,5
203.5,-797.0,807.0,12.25,2330.0,2531.0,592.0,949.0,5
426.75,-797.5,612.25,358.25,2051.25,2489.0,244.5,251.0,5
917.75,-669.75,253.0,895.25,1949.0,2315.0,19.0,328.25,5
659.75,-667.75,75.0,821.25,2225.75,2243.25,-342.5,648.25,5
353.25,-551.25,184.0,638.75,2840.5,2099.0,-817.0,744.5,5
424.75,-429.25,229.5,698.75,3032.0,1777.25,-1321.0,1014.5,5
509.5,-399.25,145.5,472.25,2434.25,1574.0,-1109.25,1046.0,5
861.75,-303.0,209.75,544.0,1484.75,1326.75,-1152.75,1039.5,5
1036.5,-265.5,239.0,374.75,911.75,394.0,-716.0,992.5,5
721.25,-161.25,127.75,277.75,720.5,-890.75,99.0,878.5,5
435.25,-122.5,128.25,156.75,658.0,-1512.25,384.5,883.5,5
98.5,-27.25,-10.5,40.0,586.75,-1613.25,279.25,631.25,5
-124.75,10.75,-272.0,-18.75,624.25,-1689.0,233.0,514.75,5
-146.75,8.0,-294.5,-35.75,-1072.0,-1658.0,282.25,343.75,5
-89.75,33.0,-158.0,108.5,-668.25,-1612.75,355.25,164.0,5
54.0,120.25,-150.5,85.0,-294.25,-1578.25,255.75,-16.25,5
360.25,249.5,-341.25,105.25,-133.75,-1394.75,339.0,-136.25,5
457.25,251.25,-625.0,32.0,-80.5,-1084.75,551.0,-275.0,5
193.25,200.5,-776.5,-17.5,-184.5,-680.25,850.0,-376.75,5
-85.75,171.0,-699.5,-124.75,-314.5,-213.25,1027.25,-382.75,5
-264.25,155.25,-315.0,-189.25,-520.5,282.0,995.5,-505.75,5
-192.0,112.75,119.75,-179.25,-845.0,442.75,1033.0,-572.5,5
-325.5,74.0,314.25,-161.5,-1008.0,635.75,1093.25,-710.25,5
-592.25,34.25,266.0,-172.75,1207.0,783.75,1116.0,-870.25,5
-688.75,10.0,-115.5,-269.75,1354.75,863.25,1116.0,-1055.75,5
-776.25,53.0,-180.5,-275.25,190.5,869.75,1109.25,-1137.5,5
-677.75,126.5,14.75,-219.25,-791.0,979.25,1110.25,-1076.75,5
-479.0,156.0,180.0,-90.5,-962.75,1158.25,1106.0,-1061.0,5
-268.0,134.75,55.25,-62.5,-912.75,1211.5,1106.25,-977.25,5
27.0,160.0,-298.0,-61.75,-681.25,1229.0,1097.0,-921.75,5
283.0,193.0,-400.5,-39.5,-316.0,1294.25,1170.5,-936.25,5
89.0,168.75,-384.75,-24.25,94.0,1371.5,1256.0,-969.25,5
-224.75,159.5,-69.0,49.25,824.5,1470.0,278.75,-934.25,5
-423.5,158.5,240.5,71.5,901.0,1527.5,-145.75,-722.5,5
-494.5,103.25,284.0,9.0,922.0,1764.75,-248.5,-509.0,5
133.75,83.0,600.25,-35.25,943.75,1992.25,-89.75,-348.0,5
634.75,81.5,970.5,-80.0,960.25,1750.5,42.75,-169.0,5
356.25,23.75,947.25,-134.75,980.75,1284.25,649.75,91.5,5
-118.0,-30.5,-459.75,-113.25,995.75,673.0,1461.25,374.5,5
-299.5,-31.0,-1081.75,-27.25,1012.25,253.25,1362.0,661.5,5
-593.0,-6.0,-1092.5,63.75,954.75,11.25,1188.75,908.25,5
-564.25,7.5,-1094.25,131.0,-404.5,-530.0,1050.0,1123.75,5
-555.25,13.75,-857.0,74.75,-2569.75,-1244.0,-615.25,1224.25,5
-81.25,3.5,-592.5,-59.5,-2940.75,-1867.0,-959.0,1086.0,5
516.0,-37.0,-110.75,-164.5,-2931.75,-2330.75,-961.75,1008.75,5
617.25,-57.5,236.5,-334.25,-2622.25,-2567.75,-966.25,1011.25,5
121.5,-94.25,789.5,-530.5,-2408.0,-2644.75,-970.5,1022.5,5
-438.0,-105.5,685.0,-604.25,-2009.5,-2605.75,-1124.75,877.0,5
-390.25,-88.5,96.75,-548.0,-2397.5,-2566.5,-1730.0,756.0,5
-439.25,-122.5,-667.25,-475.0,-2681.0,-2429.75,-1875.0,721.5,5
-523.25,-156.25,-506.25,-303.25,-2674.5,-2442.25,-661.25,616.75,5
-586.5,-174.25,-114.75,-223.75,-2271.75,-2445.25,-779.0,707.5,5
-450.5,-151.5,-184.25,-199.5,-1941.75,-2436.25,-988.25,866.75,5
-187.25,-87.25,-208.25,-128.5,-1668.5,-2498.75,-989.75,898.0,5
-49.0,-35.5,-593.5,-111.75,-2186.0,-2421.5,-992.25,771.5,5
235.0,-3.5,-876.0,-31.75,-2889.25,-2183.75,-995.25,675.75,5
761.75,34.25,-897.75,-80.25,-2889.5,-1242.5,-997.5,537.25,5
870.25,60.75,-628.0,-118.0,-2889.25,-346.5,-996.75,418.5,5
375.75,64.25,-163.25,11.25,-2652.75,-491.0,-998.25,421.5,5
148.75,81.75,145.5,134.25,-2417.5,-453.0,-999.75,339.25,5
-159.25,120.25,281.25,174.75,-2238.25,-313.25,-998.0,217.5,5
-171.0,138.25,255.5,218.0,-2155.25,-0.25,-996.5,-27.75,5
111.75,134.75,279.0,236.0,-2222.5,215.75,-996.75,-728.25,5
188.25,120.75,371.5,133.5,-2315.25,561.25,-998.0,-1628.0,5
345.0,114.5,339.75,70.0,-2155.0,882.0,-996.75,-2135.5,5
528.25,111.75,456.75,72.0,-2198.5,1061.75,-995.5,-2245.0,5
927.5,115.0,793.25,109.25,-1988.25,1270.5,-711.25,-2351.75,5
902.5,131.75,1168.75,123.0,-1891.75,1409.0,-412.75,-2281.25,5
-102.0,55.25,1153.25,68.75,608.75,1460.0,-312.5,-1805.5,5
-813.0,-75.0,784.5,77.5,1091.75,1422.75,-17.75,-1277.0,5
-837.0,-83.5,1036.5,119.25,1088.75,1224.25,170.0,-1105.0,5
-807.25,-27.0,1049.75,82.5,1086.5,885.0,482.5,-1592.75,5
-572.5,-6.5,162.25,71.25,1085.0,838.0,803.75,-2351.75,5
-255.5,30.75,-505.5,111.75,914.5,855.0,996.75,-1936.75,5
-114.5,30.5,-705.0,132.0,755.75,806.5,929.0,-1358.25,5
-158.75,25.0,-439.0,123.25,875.25,149.25,727.0,-522.25,5
-387.0,-64.0,-250.5,98.25,710.0,-508.0,590.0,-527.5,5
-493.25,-156.25,-325.0,115.5,554.5,-907.75,492.0,-524.25,5
-257.75,-70.25,-205.75,120.0,1105.5,-987.5,435.0,-535.25,5
0.5,12.25,41.25,113.75,1534.25,-987.25,382.75,-465.75,5
58.75,3.75,389.75,88.75,1614.0,-988.25,399.0,-220.75,5
54.0,-11.75,300.0,-17.0,1608.5,-990.75,370.25,1714.0,5
152.25,-20.75,5.5,-14.0,1675.75,-872.75,351.25,1779.0,5
169.25,-26.5,-250.5,85.75,1678.5,-1155.0,353.5,1785.75,5
190.5,3.0,-616.5,63.25,421.25,-1286.0,319.25,1817.5,5
210.0,-18.5,-358.5,61.0,-131.75,-1463.25,593.25,1845.0,5
263.5,-54.0,368.5,49.75,20.75,-1543.25,721.5,1878.0,5
360.75,-26.0,561.5,-33.5,191.0,-1501.5,833.25,1914.75,5
229.25,3.25,43.5,-101.25,-81.0,-1380.5,934.5,1931.75,5
168.25,31.25,-478.75,-104.5,-540.5,-1297.75,1025.25,1943.5,5
186.25,7.25,-553.75,8.0,-677.75,-1284.0,1085.5,1090.75,5
269.0,-20.0,-572.0,37.25,-188.25,-1265.0,1222.0,-216.5,5
167.5,13.5,-500.0,51.5,385.25,-818.25,1347.25,-1330.0,5
-68.75,46.75,-361.5,59.75,558.25,-437.0,1394.5,-2058.75,5
-152.5,44.75,-221.0,-49.25,301.75,-204.5,1391.25,-2078.5,5
-244.75,4.75,-139.0,-175.75,-107.25,-73.75,1488.25,-2109.5,5
-172.25,-24.5,-173.25,-240.5,-502.5,116.5,1695.5,-2162.0,5
-37.75,-37.25,-142.0,-247.5,-1099.0,313.75,1858.5,-1974.5,5
102.75,-61.5,-180.75,-341.5,-1255.0,475.0,1988.75,-1197.25,5
173.25,-82.25,-148.25,-410.75,-1137.25,494.5,2215.25,-818.0,5
83.25,-88.0,-89.25,-416.25,-962.5,714.25,2473.5,-723.0,5
43.0,-75.25,78.75,-352.75,-884.75,790.5,2245.0,-726.75,5
63.25,-62.25,301.75,-221.0,-727.75,869.0,1968.5,-794.25,5
120.75,-43.75,585.25,-85.5,-644.25,542.25,1999.5,-778.75,5
159.75,11.5,898.0,77.25,-529.5,548.75,2288.75,-569.0,5
225.0,23.0,804.25,191.75,1584.25,32.0,2152.0,-291.75,5
263.75,38.25,967.25,224.25,1650.75,-440.5,1383.0,-120.0,5
147.5,45.75,1077.75,280.5,1726.0,-163.25,366.0,-208.75,5
7.25,60.5,432.0,297.5,1801.5,-310.25,-320.0,-826.75,5
-52.75,70.25,-252.25,230.0,1879.0,-283.25,-984.5,-1518.0,5
-59.25,25.25,-926.5,201.0,1983.0,-46.75,-1002.25,-1671.25,5
-73.25,-7.5,-1268.25,103.5,2095.0,16.0,-999.75,-1665.75,5
-47.0,-50.5,-1118.25,1.25,1839.75,-68.5,-998.5,-1766.0,5
59.25,-28.25,-890.25,-68.0,943.0,-372.0,-995.0,-1300.0,5
88.25,-37.5,-515.25,-146.25,-203.0,-414.0,-991.75,-439.25,5
-14.75,-74.25,-248.0,-223.0,-550.25,-212.75,-991.0,89.25,5
-162.5,-80.5,75.0,-209.0,-995.75,139.0,-995.0,119.25,5
-238.25,-94.25,455.25,-70.5,-1212.0,346.25,-989.75,215.0,5
-222.5,-72.25,499.75,-29.25,-1186.5,768.5,-989.5,1513.75,5
-138.0,-21.75,387.0,-48.25,330.5,1383.5,-1468.5,2267.5,5
-108.75,-4.25,329.5,-43.75,101.0,1171.75,-2666.75,2289.5,5
-139.0,1.25,376.75,-20.75,78.5,277.0,-2997.5,2323.75,5
-114.25,21.75,314.25,11.0,-232.5,274.5,-2988.5,2348.0,5
-116.5,20.75,354.25,-3.25,-134.5,-33.25,-2980.25,2366.25,5
-100.75,33.25,389.0,-56.5,-395.75,-36.75,-2981.25,2295.5,5
-65.75,32.0,165.75,-55.0,-2422.75,453.0,-2970.5,2115.5,5
-59.75,16.5,-82.75,0.0,-2949.0,758.5,-2970.5,1896.75,5
-21.25,9.25,-252.25,37.25,-1948.5,958.0,-2741.0,1677.75,5
-3.0,-10.0,-333.0,7.25,-1056.25,139.0,-1959.5,994.5,5
-10.75,-261.75,-520.5,-294.25,525.5,-374.25,-1355.75,919.0,5
44.25,-631.5,-922.75,-685.75,347.25,-1028.75,-918.0,-484.25,5
485.5,-543.5,-858.0,-632.0,444.0,-1587.5,-910.75,-1744.5,5
739.5,-218.0,-676.0,-452.75,571.5,-2081.25,-895.5,-1718.75,5
465.5,-218.25,-512.75,-261.75,1383.5,-2104.5,-339.25,-2217.0,5
-51.0,316.75,377.25,742.75,2601.0,-1024.0,-120.5,-2933.75,5
-400.5,1026.25,907.25,800.5,2430.75,-1015.25,322.25,-2842.75,5
-191.25,953.75,564.5,529.5,1673.75,-806.25,1196.75,-2562.0,5
-241.5,623.5,518.5,630.25,1739.0,-567.0,1767.0,-2322.0,5
-359.0,732.75,473.5,572.75,1493.25,-206.75,1798.5,-1639.25,5
-158.5,446.0,295.25,512.25,2045.25,176.0,1798.75,-996.75,5
-214.5,77.0,164.5,249.25,1152.5,-449.75,1846.75,275.5,5
-22.5,-792.25,-417.75,-673.75,506.0,-1486.5,1635.25,494.0,5
80.25,-704.0,-437.0,-540.0,831.25,-1518.25,1204.25,-2.5,5
-52.5,-132.75,194.25,565.75,1778.25,-911.75,717.0,-709.0,5
-202.0,454.5,522.75,686.0,1677.75,-377.5,727.0,-801.5,5
-60.75,839.5,385.0,526.25,1365.0,-545.75,914.25,720.75,5
-50.75,-37.0,-43.5,59.25,672.5,-1416.5,1337.75,2320.25,5
69.25,-672.25,-321.0,-474.0,512.5,-970.75,1384.0,1461.75,5
63.25,274.5,98.25,464.25,1661.5,398.25,1077.0,309.0,5
-234.5,690.25,437.5,412.5,1544.0,463.5,1292.0,559.75,5
54.0,-498.0,-390.0,-984.5,115.25,-633.0,1404.5,1024.25,5
367.0,-871.75,-660.5,-999.5,183.5,-542.75,1194.0,644.0,5
528.5,-587.0,-544.0,-756.0,249.25,-441.75,1097.5,550.0,5
489.25,-485.75,-494.25,-605.5,392.0,-86.25,1052.5,358.0,5
564.5,-104.75,-496.75,-808.75,366.5,265.0,1179.25,329.5,5
547.75,-48.5,-447.5,-695.0,526.25,618.75,1193.5,104.0,5
416.0,47.0,-304.75,-655.5,739.5,934.25,1026.0,40.25,5
243.0,-116.75,-206.75,-564.75,1170.0,1133.0,832.75,-95.0,5
-50.5,-103.25,-29.25,-146.25,1327.75,1200.5,700.25,-107.5,5
-141.0,-190.0,-20.25,2.25,1480.75,905.25,585.5,38.75,5
-332.5,-209.0,66.25,198.75,1475.75,995.25,456.0,153.25,5
-292.75,-117.0,91.5,245.0,1453.25,1324.5,345.75,204.25,5
-637.5,-190.25,312.0,648.5,909.25,1544.75,141.5,-65.0,5
-829.25,-135.75,482.5,1011.5,-1549.5,1442.25,-158.5,-723.0,5
-779.25,0.0,699.75,988.5,-2271.0,1232.25,-349.25,-1393.75,5
-664.75,43.0,413.0,273.75,-3182.5,327.25,-668.0,-991.5,5
-110.25,-146.5,-137.25,-509.0,-3857.25,158.25,-315.75,-586.0,5
404.0,141.25,-130.75,-513.25,-3787.0,518.75,197.0,-123.75,5
579.25,262.0,-237.75,-495.5,-3640.5,614.5,492.25,8.75,5
451.5,222.75,-174.0,-736.75,-3670.25,519.25,594.75,-202.5,5
429.0,266.75,-123.5,-547.0,-3382.25,336.5,387.5,-391.0,5
293.5,121.25,-126.75,-357.75,-3163.75,815.75,200.0,-445.0,5
418.75,209.0,-138.5,-330.5,-2801.25,1205.75,226.0,-841.25,5
480.0,221.25,-182.5,-145.5,-2402.5,1218.75,413.5,-1875.25,5
526.75,411.5,-151.0,-139.75,-2000.25,1043.75,689.5,-2267.75,5
529.25,494.75,-160.75,59.25,-1058.5,1120.5,834.5,-2429.5,5
357.0,434.25,-95.75,38.25,-427.5,1272.5,701.25,-2622.0,5
350.75,423.5,-101.75,131.75,-179.25,1568.75,390.0,-2664.75,5
233.0,424.5,-53.5,168.75,-204.75,1755.75,214.25,-2628.5,5
152.75,355.0,-18.25,251.75,-586.75,1839.25,158.25,-2591.0,5
46.75,289.0,13.25,297.0,-834.0,1817.75,262.25,-2473.0,5
-34.0,237.5,35.0,288.25,-727.25,1475.25,218.75,-2295.0,5
-95.25,128.25,58.5,387.25,-645.75,1095.75,97.25,-2122.5,5
-140.5,88.75,92.0,344.25,785.75,621.5,166.75,-1839.25,5
-111.25,48.0,53.0,329.0,1458.5,334.0,157.25,-1619.25,5
-223.25,-13.0,51.5,268.75,1463.25,256.75,230.25,-1316.5,5
-327.0,-27.5,52.0,226.0,1492.5,312.25,221.75,-1038.5,5
-442.0,3.25,73.75,182.0,1479.5,416.75,319.0,-784.75,5
-572.75,30.25,-25.75,179.0,1482.5,417.75,549.25,-526.25,5
-654.0,5.75,-164.75,153.75,1475.25,472.5,487.75,-425.5,5
-639.5,-34.75,-85.5,130.0,1479.5,447.75,318.25,-132.5,5
-535.0,-212.0,78.25,143.0,1577.0,336.5,-63.25,1046.0,5
-452.5,-482.0,220.75,112.5,1726.75,319.25,-540.25,1962.75,5
-356.0,-624.5,298.5,68.5,1661.5,284.25,-891.0,1896.0,5
-201.5,-596.25,343.0,14.5,1577.0,210.5,-1177.5,1840.25,5
-165.0,-626.5,430.0,4.25,1531.25,430.5,-1447.75,1821.25,5
-140.75,-518.25,405.0,-13.25,1287.0,407.25,-1521.75,1892.75,5
-122.75,-370.0,494.75,-65.0,-611.75,218.5,-1406.75,2572.0,5
-168.25,-541.5,896.75,-87.0,-533.75,-230.75,-1215.0,3170.0,5
-171.25,-614.5,1047.5,3.0,-615.25,-402.25,-997.25,3108.5,5
-337.0,-701.0,644.0,66.5,-597.0,-454.5,-1001.5,3085.0,5
-466.75,-655.25,330.25,174.75,-629.5,-288.0,-1097.25,1692.75,5
-435.75,-557.75,326.5,442.75,-664.0,-168.25,-1064.5,591.75,5
-367.0,7.75,331.5,607.25,-214.75,-361.0,-705.5,349.5,5
-356.75,1012.5,219.0,530.0,220.5,-467.5,-300.75,402.25,5
-354.25,960.25,25.0,473.25,-324.0,-493.0,-331.25,506.5,5
-228.25,638.5,-107.25,425.5,-857.5,-607.75,-475.5,569.5,5
-287.5,805.25,-209.25,75.25,-991.25,-668.25,-564.0,791.5,5
-327.0,478.25,-244.75,-76.5,-1105.75,-754.5,-682.0,811.75,5
-209.75,533.5,-244.75,-95.5,-1179.25,-991.5,-1027.25,943.75,5
-187.5,426.5,-297.25,-1.0,-1258.25,-1158.25,-1418.5,989.25,5
-151.0,414.0,-383.0,30.25,-1307.5,-1256.5,-1403.75,1326.0,5
-62.25,328.0,-439.5,14.25,-1343.75,-1328.0,-1300.75,1556.75,5
25.25,41.25,-442.75,-2.75,-1377.0,-1266.0,-1165.0,866.75,5
90.5,-27.25,-416.25,1.0,-1168.5,-1202.0,-1046.75,194.25,5
121.75,-199.75,-359.25,-18.0,-942.75,-1121.75,-965.25,-375.0,5
132.5,-229.5,-314.25,-66.25,-750.75,-1112.25,-847.75,-213.25,5
189.0,-297.75,-267.75,-81.0,-764.0,-1104.0,-648.5,266.75,5
207.75,-250.0,-285.75,-223.25,-885.0,-1073.25,-464.5,549.75,5
192.75,-181.0,-277.25,-397.75,-1292.0,-1063.75,-562.25,452.0,5
194.25,-96.75,-246.5,-478.25,-1382.0,-1019.5,-665.25,372.75,5
212.75,-96.0,-226.0,-411.25,-1365.75,-978.75,-535.0,272.5,5
188.0,-122.25,-152.0,-382.25,-1349.5,-957.5,-89.5,186.5,5
155.0,-78.75,-173.25,-404.5,-1332.0,-975.0,352.75,120.25,5
155.25,-72.75,-267.25,-379.25,-1313.75,-999.5,625.75,62.75,5
177.0,-87.5,-244.75,-315.25,-1041.5,-1003.75,700.25,385.5,5
317.25,-163.25,-94.5,-218.0,-815.25,-823.0,607.75,143.0,5
428.0,-129.75,-20.5,-138.5,-633.0,-548.75,428.75,-94.5,5
470.0,-81.75,46.75,-102.75,-455.5,-335.75,295.0,415.75,5
391.5,-128.25,21.0,-137.75,-143.75,-267.25,254.75,418.75,5
348.0,-149.25,-86.25,-154.0,464.25,-195.25,406.75,498.25,5
411.75,-195.0,-156.0,-156.0,1306.0,-107.75,613.25,836.25,5
492.5,-532.25,-384.0,-468.5,1203.75,-169.75,721.75,1431.75,5
639.5,-659.5,-615.25,-575.25,1357.0,152.5,1131.0,2032.75,5
559.5,-225.0,-648.5,-434.75,1658.75,503.0,1446.25,1702.5,5
340.0,325.75,-570.5,-366.25,1979.25,466.0,1458.5,1517.25,5
355.5,463.5,-559.25,-221.0,2546.75,509.75,1511.0,390.75,5
223.5,491.75,-334.25,-111.25,2644.5,578.25,1445.0,-485.5,5
142.75,477.5,-267.25,-117.0,2797.0,692.5,1480.5,-1400.25,5
-11.5,387.0,-82.0,-88.5,2976.5,820.75,1531.75,-1651.0,5
-152.25,336.25,80.0,-162.5,3033.25,905.5,1548.25,-1753.25,5
-172.5,350.25,203.25,-99.75,3163.5,1013.0,1521.5,-1948.75,5
-172.5,351.5,355.5,-86.5,3188.5,984.5,1298.25,-2159.0,5
-153.25,257.5,429.75,-31.75,2959.75,1031.75,1079.0,-2290.75,5
-154.25,67.5,290.5,-19.5,2516.75,1057.25,654.75,-2175.5,5
-24.75,-34.5,58.5,77.75,1442.0,1204.75,543.0,-1914.0,5
-119.0,-374.5,86.5,104.5,419.0,1563.25,389.75,-1700.25,5
-604.25,-896.75,156.75,291.75,555.75,1711.75,260.75,-2094.5,5
-807.75,-414.5,428.5,1020.0,679.5,1646.75,342.0,-2758.25,5
-662.75,638.75,547.75,977.0,597.0,1657.0,417.5,-2910.75,5
-628.25,575.25,498.25,655.0,565.75,1508.5,274.5,-2578.75,5
-290.0,-280.75,324.75,-58.75,557.0,604.75,-70.75,-1902.0,5
806.5,-601.25,-175.25,-773.0,249.25,-51.0,-298.25,-1835.25,5
891.0,53.75,-167.5,-732.25,-118.25,-169.25,-347.25,-2174.75,5
587.75,466.5,47.5,-541.75,-1112.0,-20.25,-425.75,-998.0,5
455.25,-60.75,-54.0,-732.25,-1490.5,109.5,-382.25,-564.5,5
125.25,209.75,9.5,-345.5,-811.75,569.75,-404.5,-143.75,5
62.75,-34.25,33.0,-502.75,-1268.0,619.75,-510.0,35.25,5
64.75,33.5,413.75,-163.75,-1002.25,812.25,-547.0,21.5,5
-39.25,39.5,824.75,-181.5,-634.75,863.25,-692.0,321.75,5
-103.25,-82.0,460.5,2.25,-81.25,812.75,-754.0,243.5,5
-240.0,56.75,-110.0,9.0,43.75,823.25,-934.75,227.5,5
-13.75,-104.25,-497.75,4.5,-1209.25,869.75,-939.5,73.0,5
473.0,33.5,-613.0,70.0,-1157.75,932.75,-906.0,207.25,5
653.25,-116.5,-433.75,46.5,-924.0,861.0,-841.0,52.75,5
295.5,-61.0,-261.75,183.0,-696.75,795.75,-634.0,-212.75,5
-29.0,-95.5,-146.5,142.75,-736.25,630.5,-603.75,-389.0,5
-253.25,-100.0,-196.5,218.5,-694.5,533.5,-586.75,-389.25,5
-472.5,-132.75,-328.5,147.75,-733.25,445.5,-523.0,-240.75,5
-712.0,-195.5,-392.25,214.75,-713.0,390.75,-611.25,-147.0,5
-873.25,-192.0,-275.5,278.25,-743.5,360.0,-769.25,210.0,5
-935.0,-264.75,-105.5,263.5,-740.5,304.0,-921.0,-7.0,5
-915.75,-270.0,-148.5,101.0,-720.0,244.75,-946.5,-882.5,5
-610.5,-330.25,-211.75,80.75,-600.5,103.25,-968.0,-1369.5,5
-66.75,-308.75,-189.75,185.5,-376.0,-17.25,-1111.25,-1489.75,5
538.0,-290.0,-75.75,195.75,-378.25,-185.75,-1203.75,-1572.5,5
675.5,-212.25,69.25,291.25,-426.0,-414.5,-1196.75,-590.0,5
327.25,-156.5,130.0,357.5,-501.25,-587.5,-847.25,28.75,5
-31.25,-65.25,125.0,395.0,-605.75,-766.25,-352.5,971.25,5
-246.5,28.0,276.75,286.0,-810.75,-968.0,-326.0,1024.25,5
-157.75,184.25,439.25,255.5,-1017.25,-1103.0,-233.25,1006.5,5
-317.0,401.25,608.25,458.0,-788.5,-994.75,39.75,652.75,5
-1176.25,514.0,1143.0,661.75,-239.5,-879.25,460.25,285.25,5
-1262.75,452.5,1077.75,574.0,-669.25,-1023.75,540.0,-6.0,5
-957.0,347.0,558.0,479.25,-1219.25,-1153.5,599.25,-526.5,5
-621.25,381.75,524.5,482.25,-983.0,-1204.25,665.75,-724.5,5
-280.75,363.5,626.75,338.0,-814.0,-1297.75,736.5,-1027.5,5
23.0,366.5,623.25,317.25,-813.5,-1298.75,822.75,-725.25,5
138.0,321.75,165.5,232.5,-1065.25,-1349.0,838.25,-567.0,5
285.25,284.75,-123.0,238.0,-1036.5,-1474.5,950.5,-787.0,5
15.25,245.5,-250.0,204.25,-319.0,-1467.75,856.5,-1287.5,5
-299.5,177.0,-367.5,42.75,416.25,-1460.5,624.5,-1232.5,5
-452.25,143.5,-361.75,-6.0,778.5,-1426.5,310.75,-540.75,5
-506.0,136.25,-310.75,-102.5,1672.25,-1149.0,166.75,-93.5,5
-514.0,118.75,-61.5,-146.25,1759.5,-996.0,142.75,32.25,5
-612.5,76.25,-102.5,-188.0,1652.5,-780.0,179.25,22.75,5
-570.25,83.75,7.0,-236.75,1652.0,-463.25,296.25,2.75,5
-441.5,51.25,11.75,-303.0,1415.0,-158.25,237.0,-36.25,5
-167.0,11.5,-73.75,-368.5,1293.5,123.5,200.5,-48.25,5
21.75,-76.75,22.25,-374.75,1255.0,510.75,139.5,-30.75,5
196.5,-152.75,163.25,-324.25,952.25,785.5,-366.0,16.25,5
228.5,-206.5,246.75,-318.75,260.5,790.25,-468.5,69.5,5
187.0,-212.75,25.0,-332.25,296.0,772.25,-1131.25,125.0,5
201.0,-220.0,-216.25,-310.75,783.75,718.5,-2014.25,172.75,5
261.5,-235.0,-318.0,-365.0,919.25,638.25,-2030.0,217.0,5
296.0,-189.0,-190.0,-375.5,1254.5,677.75,-2013.0,242.5,5
291.0,-204.0,159.75,-347.5,1479.5,634.75,-2014.0,256.5,5
291.75,-178.75,429.5,-330.25,1338.0,514.5,-2015.75,117.75,5
311.25,-172.75,413.5,-289.0,1226.0,554.0,-2017.5,654.5,5
279.75,-151.75,110.75,-262.0,1160.25,443.5,-1909.0,1169.0,5
171.25,-112.25,-195.75,-282.0,1113.75,144.0,-1679.0,1546.25,5
128.5,-99.0,-447.0,-267.0,1090.25,136.75,-1487.5,1345.25,5
256.75,-13.25,-712.5,-204.75,1025.5,344.25,-1230.75,1182.5,5
464.5,31.75,-735.0,-155.75,1026.0,261.75,-959.5,953.75,5
483.75,53.5,-750.25,-143.25,1091.75,71.25,-761.75,659.25,5
407.5,-10.25,-711.5,-135.25,1183.0,-16.5,-701.5,396.5,5
387.0,-81.25,-390.5,-113.75,1265.25,-205.25,-729.25,300.75,5
346.5,-160.75,-191.0,-104.0,1325.75,-373.25,-789.75,179.25,5
294.5,-265.0,-251.25,-77.75,1305.5,-284.25,-910.25,56.75,5
263.0,-317.75,-259.5,-99.75,1272.75,-267.0,-1197.25,-53.75,5
239.0,-368.0,-151.75,-99.25,992.0,-333.0,-1710.75,-131.5,5
242.5,-297.0,-243.0,-96.0,1005.0,-193.5,-2118.25,-193.25,5
272.5,-246.0,-208.0,-115.0,1270.75,-20.5,-2241.5,-257.75,5
230.25,-207.5,-26.25,-79.75,1241.5,27.75,-2037.75,-308.5,5
221.0,-82.25,130.75,-41.75,1238.25,121.25,-1939.0,-386.75,5
226.75,-7.5,238.0,-25.75,1272.75,361.0,-2059.0,-436.0,5
170.0,-12.25,348.0,-37.75,1305.5,417.0,-2110.0,-860.75,5
150.75,-21.0,388.5,-41.75,1370.5,458.75,-2072.75,-1080.5,5
154.75,30.5,281.0,-106.25,1138.75,455.25,-2084.5,-1052.25,5
202.5,45.75,251.75,-135.5,839.5,525.5,-1944.25,-916.5,5
231.75,-17.5,187.0,-85.25,556.0,714.75,-1618.75,-509.25,5
208.5,-26.25,21.75,-86.75,-285.0,781.0,-1058.5,225.5,5
163.5,20.0,-321.0,-110.25,-809.25,925.75,-594.75,581.75,5
264.5,107.0,-390.5,-101.0,-1049.0,983.0,-448.5,828.5,5
375.25,197.0,-188.0,-154.0,-1995.75,617.0,-345.25,1332.0,5
82.25,461.75,-233.25,-370.75,-2697.5,-187.5,40.0,1807.75,5
-637.5,711.0,-477.25,-387.75,-2599.5,-268.0,380.75,2011.5,5
-921.25,349.5,-898.75,-390.25,-2204.75,177.75,496.5,2139.25,5
-661.0,85.5,-1115.25,-432.25,-1805.75,333.0,1096.25,2171.0,5
-319.5,66.75,-1081.5,-325.75,-1069.25,424.25,1168.25,1872.5,5
133.0,-150.25,-887.5,-134.5,-597.75,581.5,881.75,1343.75,5
502.75,-417.0,-96.5,409.25,827.5,1244.0,886.5,832.25,5
485.25,-891.0,535.5,910.25,726.5,1153.5,985.25,-244.5,5
440.5,-701.5,755.75,717.25,704.5,779.5,1065.0,-1334.5,5
388.75,-299.5,825.75,649.25,348.25,794.25,346.5,-1479.5,5
286.25,-294.0,1109.25,648.25,1.25,522.5,31.75,-1357.75,5
284.25,-50.0,945.5,541.75,31.25,600.75,100.0,-1427.25,5
305.5,-143.0,1004.75,591.0,122.5,751.75,372.5,-1295.75,5
278.25,-77.25,766.25,474.5,118.75,782.75,933.5,-1278.5,5
318.75,-86.75,892.25,415.75,-92.25,1010.25,977.25,-1180.0,5
301.0,-104.25,743.25,267.75,-139.25,1127.5,293.25,-560.25,5
322.5,-42.0,631.25,184.0,-331.0,836.25,-230.25,885.0,5
244.5,-35.25,485.0,147.0,-358.5,338.25,-458.0,984.0,5
114.0,77.0,207.0,68.75,-367.25,14.0,-976.25,1445.75,5
-7.5,97.5,235.5,42.0,-323.5,-330.25,-309.0,2473.75,5
-161.75,129.75,81.75,18.0,-325.25,61.0,455.0,3017.75,5
-269.75,110.5,279.25,-29.75,-416.0,465.5,668.25,3066.25,5
-406.0,118.25,604.25,-70.5,-457.0,225.75,870.75,3063.5,5
-337.25,121.75,925.75,-50.25,-493.25,-183.5,1050.25,3089.25,5
-233.25,175.5,1018.5,-73.0,-477.0,-961.25,1057.25,3088.5,5
-247.0,204.25,688.0,-41.0,-505.0,-959.75,1255.25,2973.75,5
-281.25,240.0,-583.25,-41.25,-480.75,-502.0,1399.5,2886.5,5
-303.25,263.75,-846.5,-48.0,-565.0,174.25,1301.0,2761.25,5
-341.75,212.75,-770.75,-71.75,-476.25,-63.25,1142.25,1922.75,5
-338.25,226.75,-853.25,-70.5,-64.5,-252.75,1208.5,739.5,5
-277.0,260.75,-1004.25,-84.5,-161.5,-465.0,1338.25,267.0,5
-261.75,268.25,-1001.5,-119.0,-602.5,-515.0,1503.5,-16.5,5
-207.0,156.5,-516.5,-82.0,-913.75,-759.5,2219.75,-379.75,5
-150.0,84.75,-5.75,-118.0,-1138.25,-966.75,2830.5,-701.75,5
-117.25,150.75,-194.25,-113.0,-1442.5,-698.5,2569.5,-906.25,5
-172.25,258.5,-422.5,-90.25,-1890.75,-733.5,2415.75,-907.75,5
-230.75,274.5,-458.5,-56.25,-1840.5,-868.25,2219.75,-1708.75,5
-143.5,223.0,-516.75,-45.25,217.25,-1117.25,1938.5,-2760.5,5
-153.75,141.5,-456.25,-58.0,-11.0,-1271.25,1039.75,-2934.5,5
-188.5,1.5,-324.5,-46.0,25.5,-1303.5,329.25,-2933.25,5
-133.0,-184.25,-128.0,-124.5,275.5,-915.0,493.75,-2922.0,5
-55.25,-335.25,-141.75,-201.0,199.25,-215.0,1018.75,-2924.0,5
71.5,-394.0,-229.25,-232.0,136.5,217.5,1034.5,-2930.75,5
207.5,-388.25,-280.75,-169.75,-1093.25,676.0,1052.75,-2947.75,5
222.0,-293.5,-149.75,-31.0,154.25,968.0,1067.75,-2948.5,5
98.75,-177.5,-8.25,11.75,9.75,1107.5,1069.5,-2907.75,5
55.25,6.5,-53.25,-40.25,-108.0,1140.0,1059.25,-2353.75,5
65.25,172.25,64.75,-116.5,12.75,1039.5,1042.5,-1619.0,5
41.75,185.0,476.5,-200.5,193.25,798.5,1032.25,-1007.0,5
64.5,207.25,898.75,-275.25,102.5,607.75,1020.5,-936.75,5
289.5,228.75,584.5,-261.5,310.5,764.25,1012.0,-971.75,5
358.5,281.75,25.0,-184.75,266.0,691.75,763.0,-1128.25,5
-2.25,279.75,-416.5,-161.0,340.75,570.5,-187.5,-1192.5,5
-423.75,99.5,-621.5,-107.75,561.0,299.75,-818.75,-709.0,5
-658.25,-26.5,-372.25,-81.25,-476.0,-96.5,-998.75,327.0,5
-677.0,-157.5,-392.75,-157.75,-1305.75,-41.25,-983.0,994.5,5
-518.75,-369.25,-475.5,-219.5,-1443.25,205.75,-970.0,1067.75,5
-230.5,-356.0,-485.0,-286.75,-65.75,4.75,-964.75,1137.0,5
187.75,-154.25,-176.0,-258.25,255.75,-266.25,-967.0,1607.25,5
694.25,84.75,585.5,-225.25,1136.25,-724.25,-970.0,2050.5,5
934.75,135.5,1499.0,-124.75,2722.75,-1210.5,-1205.0,2275.25,5
775.0,95.25,1613.5,-91.0,2345.5,-1434.25,-1716.0,3027.0,5
452.5,383.25,1230.5,-301.75,1875.0,-1572.5,-2021.5,3529.5,5
306.25,457.0,38.0,-257.25,506.75,-1266.75,-2113.0,3429.0,5
430.75,445.5,-515.75,-208.75,858.0,-55.5,-2180.75,3345.0,5
684.25,431.5,-1484.25,-247.75,749.25,744.5,-2165.0,3344.5,5
515.5,336.0,-1637.5,-365.0,2508.25,795.75,-1367.25,3497.25,5
-303.75,446.75,-1154.5,-511.25,2329.75,806.0,-242.25,3296.5,5
-805.0,173.25,-497.5,-458.75,2718.75,909.75,-31.25,2338.0,5
-757.0,-178.75,166.5,-385.25,2775.75,1279.0,38.0,1492.0,5
-729.0,-70.25,785.25,-237.5,2891.0,1368.25,300.5,928.0,5
-769.75,64.75,185.5,-42.0,2962.0,1180.25,463.5,798.25,5
-563.75,78.5,-407.0,-100.25,3400.75,723.5,504.0,647.0,5
-275.5,28.5,-510.0,-66.75,3364.25,394.75,530.75,506.5,5
-116.25,-144.75,196.75,-4.75,3282.75,780.5,557.25,-1368.75,5
-42.25,-695.75,851.25,285.25,3137.25,1332.5,523.5,-2216.5,5
279.5,-781.0,124.75,1048.0,2929.5,1275.25,471.0,-2960.75,5
542.25,-645.5,-400.25,1086.5,2683.25,1133.25,-1587.25,-3079.75,5
623.0,-662.25,-497.75,895.25,2271.5,1087.75,-1435.5,-3236.0,5
741.25,-464.0,-719.0,929.75,1979.25,846.75,-1445.25,-3556.0,5
615.5,-327.0,-918.5,612.25,-424.25,-879.25,-1384.25,-3464.0,5
158.0,-358.5,-360.25,487.0,-183.0,-1406.75,-1341.5,-3366.75,5
145.25,-290.25,736.75,440.5,-207.5,-1545.0,-1361.0,-2899.25,5
54.5,-315.75,1423.75,323.5,-378.25,-1576.5,-1398.0,-2550.25,5
69.5,-216.5,1531.0,306.25,-2247.5,-1497.0,-1628.5,-2405.75,5
-69.75,-248.5,1146.25,131.0,-3137.75,-1434.25,-1754.0,-2472.5,5
-147.75,-145.0,690.0,231.0,-3168.25,-1261.0,-1759.75,-2308.5,5
-91.5,-91.0,592.25,147.25,-3244.0,-1145.25,-416.5,-2155.75,5
-163.25,-45.75,853.0,174.0,-2954.25,-286.0,467.0,-1360.75,5
-174.5,35.75,1017.25,133.0,-2516.25,1022.25,592.5,-848.0,5
-232.75,95.25,847.25,54.75,-2020.25,1179.0,686.75,-591.75,5
-289.25,182.0,406.0,-7.25,-1885.25,1347.25,942.25,340.0,5
-482.0,212.75,51.0,-26.0,-1639.0,1456.5,995.0,946.5,5
-513.0,256.0,-542.25,1.25,-1307.75,1380.5,999.25,1112.5,5
-349.75,241.25,-1100.5,-58.0,-1298.5,1221.0,1003.5,1104.25,5
-145.5,227.0,-941.25,-59.25,-1478.25,1022.25,1004.75,1118.5,5
-33.5,180.0,-355.75,-162.0,-1769.25,983.0,1008.75,1119.25,5
13.75,151.75,294.0,-260.0,-1877.25,-565.75,1009.0,1117.25,5
148.5,140.0,570.0,-335.25,-2086.75,-531.5,170.25,1124.5,5
205.5,143.25,411.5,-291.5,-2243.75,-635.75,-981.75,1240.25,5
228.0,139.0,-599.5,-251.75,-1968.25,-775.0,-1233.25,1601.25,5
225.0,113.5,-536.0,-204.5,-1650.25,-951.0,-1312.0,1852.5,5
150.75,114.75,-299.25,-176.25,-2188.0,-1299.5,-1437.25,2025.0,5
43.75,103.75,-47.75,-185.0,-2946.75,-1492.0,-1697.25,1594.5,5
-88.5,110.0,38.0,-188.5,-3160.25,-1668.0,-2035.5,701.25,5
-221.25,125.5,-497.5,-195.0,-3146.75,-1815.25,-2497.5,257.5,5
-324.5,107.0,-660.5,-125.25,-3128.5,-2015.0,-2984.75,2.0,5
-376.5,105.25,-677.0,-100.5,-3118.5,-2087.5,-2984.5,107.25,5
-312.75,111.25,-443.5,-118.25,-2785.5,-1837.75,-2985.5,334.5,5
-73.5,73.75,-322.25,-156.0,-2537.5,-1575.0,-2985.5,1066.25,5
135.0,59.0,-576.75,-165.0,-2326.5,-1526.5,-2986.5,1199.0,5
259.75,86.0,-765.75,-155.5,-2163.25,-1537.25,-2793.5,890.5,5
304.75,116.0,-1102.25,-138.25,-1193.5,-1455.25,-2509.75,915.25,5
226.0,120.25,-1198.5,-101.75,-803.25,-1373.25,-2232.5,507.0,5
107.0,132.5,-1123.75,11.75,-1494.25,-1408.75,-2085.75,-298.0,5
-38.5,127.75,-710.5,28.5,-1264.75,-1641.0,-2037.25,-386.0,5
-180.25,83.25,-301.75,-81.5,-759.75,-1937.0,-2002.0,-422.25,5
-376.25,77.0,-118.25,-108.0,-230.75,-2002.0,-2158.75,-405.75,5
-395.0,78.0,-330.25,-134.5,397.0,-1820.75,-2647.25,-397.5,5
-234.75,52.5,-493.25,-105.5,740.0,-1067.5,-2989.25,-514.25,5
-106.0,22.5,-120.75,-76.25,764.5,-66.25,-2989.75,-601.0,5
38.5,-18.0,180.5,-84.5,280.75,105.0,-2937.75,-90.25,5
93.5,-43.75,219.5,-58.25,-251.25,4.25,-2567.5,619.75,5
105.75,-46.75,240.0,-10.25,-466.0,-22.0,-2226.75,686.75,5
86.5,-40.0,372.0,25.75,-446.5,113.0,-1982.0,789.25,5
110.0,2.5,642.75,9.5,-74.75,377.0,-1830.75,1424.25,5
125.25,-3.25,1002.75,-10.25,609.5,659.25,-1669.0,1344.25,5
0.25,-29.75,1222.0,-16.75,1849.75,877.5,-1515.0,1307.75,5
-89.0,-48.25,993.5,7.0,2214.75,993.25,-1404.5,1362.0,5
-150.25,-60.5,622.75,27.25,2026.5,1089.5,-631.0,1382.0,5
-174.5,-65.25,544.5,22.75,2020.75,1224.5,229.0,1232.0,5
-148.5,-54.5,465.75,10.75,2120.5,1387.25,873.0,520.5,5
-128.75,-23.5,489.75,23.25,2088.75,1544.75,1006.75,338.25,5
-107.0,-32.0,999.5,73.75,1999.25,1629.25,1007.0,511.25,5
-56.25,-9.25,1174.5,72.25,2058.75,1561.0,1006.75,638.75,5
-34.5,10.5,790.5,44.0,2039.0,694.75,1126.25,579.25,5
-45.25,16.5,238.5,34.25,1961.25,40.25,2629.75,488.5,5
-60.0,18.5,-269.5,50.75,2011.75,-60.0,3006.0,513.0,5
-76.75,3.5,-605.75,53.0,2024.5,34.5,3006.0,451.5,5
-12.25,28.25,-601.25,-1.25,2016.25,417.0,2139.25,452.25,5
150.25,26.75,-455.5,-50.25,2042.5,1377.5,2490.75,-3.75,5
253.75,19.75,-102.75,-104.0,2084.5,2013.25,3005.75,-128.75,5
66.0,11.5,-108.0,-86.75,2109.75,1645.5,2259.25,-372.75,5
-113.75,1.0,-57.0,-24.5,2114.75,839.75,1005.75,-843.0,5
-128.5,2.25,-153.75,19.25,2174.75,439.75,1005.25,-1056.75,5
-145.25,-9.75,-177.0,23.25,2202.5,367.5,1005.5,-1190.0,5
-99.25,-13.0,-129.5,93.5,2240.0,376.75,1005.0,-820.25,5
-62.5,-10.75,-254.75,294.25,2277.75,775.5,1316.25,-772.5,5
-15.0,-3.25,-271.0,260.5,2277.0,1136.25,2514.75,-543.75,5
-46.25,2.75,-388.0,63.75,943.75,1532.75,3005.5,-63.25,5
-67.75,5.25,-374.75,-46.75,274.5,1722.75,3005.5,194.75,5
-52.5,5.5,-389.75,-150.0,278.5,1571.75,2823.0,151.25,5
-52.5,10.5,-363.5,-224.25,283.0,1147.25,2123.75,-11.5,5
-36.25,15.25,-319.25,-355.75,304.25,776.25,1563.0,21.25,5
-52.25,9.0,-204.5,-291.75,250.0,709.5,680.0,67.0,5
-27.75,9.25,-61.25,-198.0,239.0,778.25,-207.75,-82.0,5
-2.5,10.75,-25.5,-101.25,226.5,582.75,-431.75,-426.5,5
-1.75,-3.75,69.0,25.25,-266.0,158.5,365.5,-733.75,5
-7.0,-42.75,112.75,84.5,-614.0,-271.0,1005.0,-899.75,5
18.5,-81.25,164.75,238.25,-1215.75,-334.0,1005.0,-862.0,5
60.5,-102.5,210.75,227.5,-1689.5,-422.5,1004.75,-710.0,5
50.75,-122.75,279.5,69.75,-1864.5,-556.75,1003.75,-822.5,5
57.0,-103.75,284.0,27.5,-1874.0,-667.75,1004.0,-899.0,5
91.75,-62.25,239.75,22.5,-1895.25,-753.25,1004.25,-663.0,5
59.0,-37.75,194.0,-53.5,-1942.0,-823.5,1004.25,-0.75,5
40.75,-25.0,143.25,-129.5,-1965.75,-802.0,1003.75,124.25,5
33.25,-34.25,55.5,-117.75,-1946.25,-768.5,1004.0,233.5,5
5.75,-39.25,-70.0,6.5,-1841.75,-700.5,1004.5,193.75,5
-27.25,-38.75,12.25,45.5,-1971.75,-513.0,1004.5,830.5,5
-88.25,-41.5,306.25,-72.5,-1931.0,-229.75,1004.75,1618.5,5
-124.25,-58.75,610.75,-198.5,-1624.75,-23.0,475.25,2041.5,5
-142.5,-27.5,676.25,-215.25,-1537.0,-69.0,-999.0,2303.25,5
-115.75,5.25,492.0,-134.0,-1725.25,-316.0,-2231.0,2289.0,5
-76.25,-7.25,180.75,-80.5,-2114.5,-662.5,-2994.75,1599.0,5
-32.25,-1.25,-189.25,-9.0,-2139.0,-702.25,-2994.75,1003.5,5
6.75,-11.25,-451.5,19.5,-2171.5,-679.75,-2726.5,497.5,5
28.5,-9.0,-545.0,-51.25,-2206.25,-596.0,-2230.0,484.5,5
38.25,-6.25,-473.75,-184.25,-2228.5,-414.25,-1759.75,445.75,5
22.0,4.5,-331.25,-321.5,-2180.0,-222.75,-1389.0,614.5,5
36.75,16.0,-226.5,-259.5,-2139.75,72.0,-995.25,1574.0,5
37.5,44.75,-156.5,-72.25,-2085.75,308.0,-995.0,1339.5,5
27.25,68.5,-144.75,-24.5,-2041.25,480.0,-995.0,900.25,5
20.25,69.25,-87.75,45.25,-2040.5,660.75,-995.0,871.0,5
30.5,75.5,166.75,125.5,-2023.0,840.5,-994.0,314.75,5
46.5,54.0,499.5,161.0,-1997.25,910.25,-993.5,-177.75,5
40.75,54.25,643.0,219.75,-1973.5,786.5,-994.75,-686.5,5
62.0,42.0,316.25,314.75,-1441.75,760.5,-996.25,-720.25,5
91.5,23.5,-9.0,497.75,-243.5,836.5,-995.5,137.75,5
88.25,-16.5,-127.0,344.5,1.25,996.0,-994.75,504.5,5
89.5,-52.25,-374.25,-30.5,-45.5,880.5,-995.0,572.75,5
94.25,-63.75,-511.25,-128.25,-82.5,807.0,-995.25,737.5,5
101.25,-58.25,-532.5,-96.25,-108.25,739.25,-995.5,985.25,5
82.75,-39.5,-559.25,-68.75,73.25,570.75,-996.5,895.75,5
29.75,-21.5,-508.75,-31.25,633.75,497.75,-819.75,600.5,5
40.75,58.5,-401.25,-24.25,1139.25,421.5,-195.25,470.5,5
-4.0,78.5,-304.25,-7.5,1335.25,119.25,330.5,338.25,5
-94.5,62.25,-235.5,-17.75,1398.0,-213.75,663.75,-163.5,5
-100.0,74.25,-104.25,74.75,796.25,-339.25,897.75,-606.25,5
-57.25,44.75,136.0,149.75,243.0,-444.75,735.0,-820.75,5
-19.25,14.75,378.5,-9.0,-183.75,-444.25,671.25,-521.0,5
51.5,-16.5,536.25,-149.0,-410.5,-325.25,190.5,-76.25,5
85.25,-78.75,487.5,-147.75,-586.0,-187.25,-636.75,-31.5,5
28.0,-132.5,307.5,-45.0,-839.0,-127.5,-698.25,-69.75,5
17.0,-129.25,202.25,58.75,-552.5,-192.5,-779.25,-164.0,5
-4.25,-138.75,121.25,-2.5,77.0,-248.0,-905.0,-624.75,5
-85.75,-144.25,133.25,-200.0,751.5,-229.5,-890.25,-891.25,5
-155.5,-100.75,204.0,-231.0,1050.5,-184.25,-903.5,-522.75,5
-126.75,-38.25,374.5,-67.25,1105.5,-22.5,-963.5,94.5,5
-128.25,32.75,599.0,-1.0,1501.0,310.5,-669.75,429.75,5
-75.75,57.75,477.75,23.5,1957.25,619.0,-676.75,781.75,5
78.0,73.5,293.0,-43.75,1933.75,610.75,-643.5,634.0,5
172.75,109.25,332.5,-71.25,1943.75,554.25,-682.0,-24.75,5
166.5,102.5,305.25,-98.75,2061.0,490.75,-925.75,-335.0,5
125.25,114.0,117.25,-96.75,2130.75,421.75,-1000.75,-987.75,5
76.75,131.75,-130.5,-51.75,2056.0,435.0,-1002.0,-1720.5,5
2.0,127.25,-354.0,-34.75,1935.75,283.5,-1002.75,-1749.5,5
-69.5,109.75,-610.25,93.25,1980.75,151.25,-1002.0,-1758.75,5
-225.25,79.75,-660.5,127.5,2063.75,218.0,-1184.0,-1089.25,5
-284.25,58.5,-560.25,184.25,2118.5,359.5,-1454.75,-746.75,5
-252.5,19.25,-482.0,223.25,2151.75,571.25,-1737.75,-1020.0,5
-191.75,-23.25,-334.0,245.5,2080.0,711.5,-1951.75,-1064.75,5
-55.5,-42.25,-249.25,230.5,2080.0,778.0,-2120.5,-1144.5,5
34.5,-95.0,-223.25,207.0,2087.0,745.5,-2379.75,-834.75,5
125.75,-122.0,-295.25,277.75,2059.75,621.25,-2656.25,-770.0,5
161.5,-73.0,-432.25,262.25,1986.5,446.5,-2744.5,-928.5,5
161.25,-55.25,-559.25,83.75,2044.75,191.25,-2315.75,-867.75,5
150.5,-49.0,-495.0,-15.0,2137.25,134.5,-1618.5,-627.75,5
87.75,-16.0,-384.5,-14.5,2114.5,95.0,-763.75,-493.0,5
24.75,-11.75,-326.75,-92.0,2141.5,-98.25,24.25,-554.0,5
-44.5,-7.75,-190.75,-146.75,2144.25,-279.25,307.75,-339.0,5
-86.5,23.75,-17.25,-289.75,2160.75,-505.0,551.0,-266.25,5
-103.25,36.0,119.5,-350.5,2230.25,-688.5,725.0,-236.75,5
-129.25,22.5,137.75,-334.75,1979.75,-672.5,907.75,132.25,5
-130.5,20.25,305.0,-259.25,1738.25,-288.25,1074.0,253.25,5
-127.25,5.5,479.25,-216.25,1571.25,16.0,1254.0,327.5,5
-100.5,2.0,455.0,-235.5,1415.25,68.25,1403.25,534.0,5
-5.0,8.75,322.25,-217.25,1256.25,-23.25,1570.0,677.25,5
127.25,7.25,199.25,-249.25,1154.0,-331.5,1752.5,800.25,5
162.75,2.75,146.75,-181.5,1058.25,-347.0,1915.25,662.25,5
129.25,-21.25,-14.0,-189.5,918.0,-86.75,2112.75,311.25,5
126.25,-28.25,47.0,-168.25,763.75,359.75,2289.0,-56.5,5
30.0,-24.75,195.25,-67.5,686.5,649.75,2379.5,-255.25,5
-109.25,-17.0,6.0,0.0,651.75,475.0,2400.0,-220.25,5
-184.5,-1.0,-163.5,103.75,650.75,331.0,2412.0,-34.75,5
-150.25,28.25,-246.75,136.75,561.0,337.5,2428.5,134.5,5
-79.0,35.25,-128.75,125.25,485.0,363.5,2412.5,277.25,5
-59.0,29.0,-44.5,78.0,586.0,100.5,2388.0,281.0,5
-83.5,36.75,-6.75,33.75,653.0,-474.75,2358.5,318.25,5
-166.25,40.75,121.75,-10.75,600.75,-545.5,2326.25,508.75,5
-202.25,16.25,57.75,-86.0,658.5,-504.0,2304.25,728.5,5
-206.0,18.25,-9.0,-96.75,761.5,-360.75,1986.75,971.25,5
-103.75,33.25,-130.0,-99.25,793.0,-253.0,1631.75,1169.5,5
25.75,27.5,-231.5,-128.0,763.75,-281.75,1392.75,1247.0,5
106.75,5.25,-245.25,-71.0,632.5,-185.5,1008.5,956.0,5
223.75,-46.5,-267.75,-12.0,563.5,-456.25,353.5,520.5,5
276.0,-55.0,-401.5,9.5,492.5,-407.0,-318.5,-13.75,5
385.75,-40.25,-429.5,-74.75,449.0,-391.5,-632.75,-571.25,5
393.5,-27.75,-298.75,-99.5,538.5,-301.5,-998.75,-1082.75,5
263.0,-20.75,-235.25,-49.25,551.5,-215.75,-1340.75,-1495.5,5
93.25,-15.75,36.25,-59.5,501.75,-205.5,-1711.5,-1517.75,5
-118.0,8.75,592.0,-24.5,509.5,104.25,-1720.25,-1090.75,5
-242.75,14.25,805.75,-40.75,623.75,428.5,-1739.5,-687.25,5
-334.25,-0.5,341.5,-26.75,749.5,784.25,-1696.75,-639.5,5
-175.5,-7.0,98.0,4.5,921.5,902.5,-1683.25,-601.5,5
-96.5,2.25,-194.5,89.25,872.25,976.25,-1695.75,-821.75,5
-107.25,-13.0,-691.75,232.0,489.0,884.0,-1621.75,-926.0,5
3.5,-160.25,-814.0,187.0,-15.25,285.75,-1465.0,-400.75,5
326.5,-651.25,-1025.5,-260.75,-939.25,-404.0,762.25,84.75,5
723.25,-693.0,-1200.75,-345.75,-1971.25,-48.0,739.5,320.5,5
660.5,134.25,-1094.25,-322.75,-2486.5,476.0,636.0,487.5,5
519.0,345.25,-817.5,-418.0,-2458.0,631.25,609.5,602.25,5
488.5,160.5,-408.5,-314.0,-2257.25,908.5,511.5,606.0,5
107.0,206.75,10.5,-324.5,-2085.75,678.75,498.75,706.25,5
71.75,125.75,132.75,-321.75,-1920.75,546.25,453.25,844.75,5
-38.5,182.0,113.5,-220.0,-1766.75,513.25,408.5,1003.25,5
-29.5,198.25,115.25,-252.0,-1194.75,445.75,329.0,1024.25,5
-106.75,181.0,49.0,-105.0,149.0,622.0,289.25,1117.5,5
-248.75,143.5,87.25,-14.0,1917.0,642.25,-281.5,1011.5,5
-269.25,80.75,52.5,115.0,2768.25,607.25,-1796.75,908.5,5
-207.25,93.5,193.0,124.75,2899.25,513.0,-1593.75,931.25,5
-69.5,48.0,355.75,184.75,3108.5,399.75,-1057.25,898.5,5
-116.25,56.75,407.75,253.75,3230.25,426.0,-567.5,1226.25,5
-64.75,81.75,506.75,313.0,2790.75,610.5,688.0,1406.75,5
-101.5,102.25,448.25,349.5,2361.5,748.5,1952.5,1320.75,5
-187.75,107.5,419.75,346.25,2467.0,898.25,1968.0,1138.25,5
-209.25,69.25,377.75,373.0,2356.75,998.0,1835.25,1004.25,5
-214.75,49.0,389.0,366.0,2148.25,1063.25,1732.5,813.25,5
-272.5,17.0,373.25,355.5,1347.5,1123.75,1659.25,615.0,5
-216.0,-5.0,324.25,310.75,1454.75,1001.5,962.75,607.5,5
-119.0,-30.0,496.5,345.0,1685.5,865.25,-550.75,589.25,5
-214.0,-53.25,508.25,255.5,1547.5,647.0,-664.5,585.75,5
-278.0,-101.0,374.0,116.25,-49.0,488.25,-777.5,735.0,5
-195.25,-190.25,214.75,-45.0,-388.75,419.5,-112.5,831.5,5
269.0,-217.75,-68.5,-153.75,-307.5,178.0,1192.5,524.25,5
792.0,-106.5,-341.75,-57.75,-446.5,-156.0,1210.25,306.25,5
651.5,113.5,-540.5,131.25,1270.25,-492.0,1184.25,507.0,5
320.5,361.5,-476.5,331.5,1247.0,-768.75,1186.5,615.0,5
-47.75,435.25,-187.0,365.75,1361.0,-1088.0,1283.5,287.0,5
-505.0,427.75,179.75,447.75,1500.25,-1158.75,1312.75,165.5,5
-1073.75,609.25,611.5,568.5,1163.75,-1220.25,1374.25,185.0,5
-973.5,579.5,487.5,538.0,497.5,-1369.0,1578.0,251.0,5
-712.25,421.5,280.25,489.0,196.75,-1310.0,1672.5,541.5,5
-755.25,428.75,326.25,426.25,342.5,-1287.5,1839.75,590.0,5
-542.0,273.75,111.75,238.75,370.25,-1172.0,39.75,634.25,5
-531.75,212.25,74.75,213.5,500.75,-855.5,147.75,532.5,5
-498.25,117.0,0.0,138.0,557.75,-490.25,317.5,445.5,5
-512.25,55.25,-49.0,61.75,578.5,-140.25,441.25,386.0,5
-469.25,28.75,-77.5,-83.75,497.75,-137.25,580.0,249.75,5
-261.0,-61.5,-44.5,-183.25,669.5,-208.75,697.5,144.25,5
-136.75,-103.5,-9.0,-287.25,486.75,-570.75,795.25,-9.25,5
104.75,-183.5,-69.75,-390.0,-821.0,-854.0,855.25,-49.0,5
184.25,-230.25,-114.75,-508.0,-780.25,-978.75,935.5,-3.5,5
536.0,-277.0,-258.75,-782.25,-1550.25,-1042.75,1030.75,213.0,5
928.5,-306.25,-355.0,-990.25,-1758.5,-996.25,1088.75,49.75,5
987.0,-428.25,-289.5,-828.75,-1788.25,-819.5,1095.75,-66.25,5
233.0,-694.5,136.25,-657.75,-1874.0,-693.25,989.5,-39.5,5
-369.75,-801.5,354.5,-569.0,-1321.25,-696.75,742.75,-317.25,5
222.75,-596.25,69.0,-445.25,-759.5,-723.0,361.0,-634.5,5
716.75,-465.5,-46.75,-431.0,-990.5,-933.25,-35.25,-967.75,5
734.75,-352.5,-28.75,-444.0,-861.5,-380.25,-424.5,-967.75,5
525.75,-338.5,89.0,-476.75,-416.5,102.0,-798.0,-595.75,5
-43.25,-414.0,261.5,-407.0,46.0,-48.25,-1168.5,-536.75,5
-230.75,-295.5,325.0,-235.75,38.5,-191.0,-1475.75,-271.25,5
-275.5,-274.25,336.25,-115.0,130.75,-261.25,-1807.0,12.25,5
-22.75,-237.25,99.5,-75.75,172.75,-419.0,-1902.25,-22.5,5
122.5,-196.5,33.25,-69.0,-112.25,-686.5,-1825.0,68.0,5
53.75,-139.75,-44.75,-41.5,-694.25,-754.25,-1782.5,216.0,5
465.75,16.0,-277.75,126.0,-1373.0,-603.5,-1310.25,21.5,5
417.75,246.5,-172.75,529.25,-1386.75,-76.75,-705.25,-239.5,5
-537.25,338.75,354.75,826.25,-1399.5,403.0,-281.75,-253.0,5
-866.25,280.5,501.0,720.75,-1656.0,424.0,172.25,-220.0,5
-418.5,289.25,307.25,588.5,-2162.0,371.75,125.25,-93.0,5
-486.25,259.5,348.25,530.5,-2519.25,-54.0,122.75,-53.5,5
-338.25,244.25,148.5,375.5,-2604.0,-431.5,146.25,-99.5,5
-155.25,218.75,62.75,264.5,-2932.0,-689.0,144.5,166.0,5
243.25,176.25,-276.25,-179.75,-3007.25,-1186.75,287.0,462.75,5
783.0,100.25,-495.0,-365.75,-2483.25,-982.25,255.75,-213.0,5
-11.0,40.75,67.0,315.75,-1364.25,-430.75,54.5,-1187.75,5
-707.5,18.25,400.25,545.75,-1439.0,-1308.25,168.25,-1152.5,5
-543.0,17.0,179.75,136.75,-2205.25,-1731.25,295.25,-993.75,5
-207.75,93.0,141.0,251.5,-2210.75,-1004.25,291.25,-1123.0,5
-282.25,110.5,95.25,266.25,-2864.0,-432.75,345.25,-695.25,5
-33.0,82.25,43.75,243.75,-3046.25,112.75,383.5,-684.25,5
-93.25,29.25,122.5,246.75,-2998.0,66.25,533.0,-327.0,5
78.0,12.0,93.25,162.25,-2585.0,171.75,695.25,-586.25,5
-179.75,-46.0,314.0,311.5,-2065.5,127.25,757.75,-674.5,5
-344.5,-57.0,316.5,42.0,-2980.5,-156.5,1080.0,-271.5,5
104.0,18.0,36.25,-438.0,-2825.75,-461.25,1256.0,190.5,5
498.0,98.25,-371.0,-886.0,-2567.75,-673.0,1469.75,204.25,5
586.0,91.75,-458.25,-882.5,-2589.0,-112.5,1557.0,-183.75,5
230.25,-126.5,-185.25,-510.25,-1918.25,789.25,1591.0,-840.5,5
-74.25,-137.5,30.0,13.5,-1324.5,1694.5,1455.75,-1179.25,5
-417.25,-94.25,453.75,616.75,-1035.25,2074.5,1297.25,-1033.75,5
-356.5,-68.0,612.25,551.75,-927.25,1694.75,1352.5,-852.25,5
-188.75,73.5,617.5,496.75,-780.5,1794.75,1198.25,-836.25,5
-160.5,80.75,338.25,189.25,-715.75,1806.25,818.0,-115.5,5
-55.0,75.75,235.5,225.0,-334.25,1971.25,335.75,-156.25,5
20.5,63.75,219.25,205.25,-573.5,1947.75,-170.25,127.0,5
7.75,43.5,-20.5,-18.75,-600.0,1716.75,-788.0,63.75,5
-92.5,53.25,-71.0,-43.0,-253.25,1232.25,-895.25,62.5,5
-29.0,31.5,-265.75,-185.25,107.5,601.5,-848.25,58.25,5
-261.75,6.25,-280.5,-116.75,296.5,265.0,-1114.75,9.75,5
-259.75,17.75,-274.5,-203.0,315.25,229.5,-1306.0,-238.75,5
-222.25,-46.25,-175.5,-53.5,629.75,374.75,-1283.0,-564.25,5
-156.25,-60.75,-165.5,-135.25,185.5,386.0,-1318.25,-734.25,5
163.0,-91.75,-177.5,-61.5,629.5,687.25,-1588.25,-1266.75,5
176.75,-110.25,-130.25,-92.5,340.5,893.5,-1851.0,-1172.5,5
258.25,-44.5,-234.25,-203.5,815.0,1002.0,-1856.75,-1288.0,5
-2.0,-66.75,-180.25,-56.25,1560.75,804.0,-1676.25,-1177.25,5
-206.25,-20.5,-149.5,-146.75,1323.0,333.5,-1471.75,-1113.5,5
-179.5,13.75,-189.5,-179.25,1810.75,78.5,-1421.25,-1184.5,5
15.5,53.5,-295.5,-269.5,1825.75,17.0,-930.0,-1067.0,5
237.5,58.25,-272.75,-216.75,2003.75,-113.25,209.25,-903.25,5
181.5,18.0,-163.75,-188.0,1859.5,-485.75,171.5,-482.25,5
252.75,-13.75,-110.0,-129.0,2109.75,-728.25,341.0,-140.25,5
418.25,-54.25,-82.75,-134.75,2038.25,-1025.0,760.75,323.75,5
398.75,-45.0,-69.0,-178.25,1725.75,-1265.0,850.5,495.0,5
232.25,-62.75,-14.0,-134.75,1275.5,-936.0,422.0,637.75,5
-5.5,-63.75,2.0,-104.0,826.5,-281.75,-96.75,882.25,5
-489.5,-41.25,-44.0,-81.75,678.5,191.5,-201.5,972.0,5
-971.0,-22.75,-123.0,-147.0,892.0,163.75,-260.0,1035.25,5
-1072.5,-30.25,-146.75,-91.25,1206.75,221.75,-356.0,1017.5,5
-876.25,-21.5,-152.5,-77.0,630.75,189.25,-252.5,1087.5,5
-492.5,29.25,-189.25,-109.0,496.5,111.5,-277.75,1268.0,5
54.5,82.0,-248.5,-170.5,629.25,-116.5,-316.0,1229.0,5
797.25,88.0,-194.5,-140.5,571.25,-304.5,-262.25,392.75,5
1428.75,84.75,-47.0,-7.25,253.75,-587.75,-17.5,104.0,5
1652.5,71.0,-19.5,-5.0,215.0,-741.25,125.5,160.25,5
1561.5,50.25,-77.0,-39.25,-1272.25,-708.75,-47.75,215.0,5
1121.0,50.25,-103.25,-75.5,-1787.0,-547.75,-147.75,1610.75,5
591.25,6.5,1.25,-130.0,-1810.25,-301.75,-150.5,2094.5,5
641.5,-30.75,18.25,-194.5,-1568.0,-12.75,-139.0,2047.0,5
899.5,-97.0,-99.75,-198.5,-552.0,275.5,-62.75,1995.25,5
775.5,-88.75,-154.5,-170.5,-221.75,447.75,88.75,2001.25,5
85.75,-64.25,-200.75,-152.5,556.25,586.5,294.5,1877.75,5
-160.25,-71.0,-207.5,-65.25,1086.25,608.0,-516.0,1739.5,5
-259.75,-16.25,-237.25,-31.0,595.5,3.25,-1335.0,1651.5,5
-487.5,-0.5,-248.5,5.5,85.5,-951.75,-1257.75,1049.75,5
-560.75,-4.0,-24.0,42.0,-153.25,-1583.25,-1162.0,414.75,5
-580.25,-5.25,138.25,46.25,-266.25,-1496.0,-1046.0,89.75,5
-223.25,-14.25,34.0,69.25,-346.5,-1526.0,-955.75,-112.5,5
563.25,26.75,-97.75,48.0,-530.25,-1583.75,-930.0,-148.75,5
672.25,89.25,-172.0,36.5,-593.0,-1783.5,-890.25,-50.0,5
-3.0,87.0,-162.5,66.0,-131.0,-2095.5,-887.5,-267.5,5
-504.25,39.75,-122.25,2.5,340.5,-2099.5,-912.5,-511.0,5
-711.75,27.25,-217.0,-111.5,406.75,-2003.0,-862.0,-729.75,5
-616.75,3.75,-246.75,-133.75,809.25,-1827.25,-827.0,-1032.75,5
-483.5,-26.75,-138.75,-192.25,541.0,-1556.25,-778.75,-1270.0,5
-233.25,-64.0,-81.5,-279.5,649.5,-1265.75,-684.25,-1523.25,5
288.0,-132.5,34.25,-323.5,761.5,-1026.0,-413.25,-1601.25,5
185.5,-118.0,149.75,-250.25,655.25,-904.25,-93.75,-1657.75,5
83.25,-70.5,197.25,-102.5,-1217.25,-380.0,203.0,-1734.5,5
-25.0,-44.5,160.75,-26.5,-1820.75,453.0,282.25,-1775.75,5
-167.25,-65.25,90.5,34.0,118.75,1248.25,250.0,-1765.25,5
-266.75,-71.0,-5.75,51.25,-257.5,1679.5,510.25,-1500.0,5
-313.75,-28.75,-99.0,42.25,-2440.0,1729.25,655.5,-1191.25,5
-77.75,-8.0,-16.75,65.0,-2160.5,1785.5,511.25,-935.5,5
-118.25,32.75,137.5,96.25,-1964.5,1831.75,404.25,-638.5,5
-84.5,55.25,116.5,115.25,-1216.0,1878.0,697.25,-331.75,5
49.0,45.0,51.5,64.25,-704.5,1858.25,968.5,-151.5,5
-43.0,8.5,197.75,-41.75,103.0,1863.75,972.75,41.0,5
-288.5,-98.0,387.75,-152.25,1017.0,1758.5,979.5,197.75,5
-223.5,-146.5,95.0,-232.25,791.75,1511.25,1305.5,377.75,5
629.0,-74.75,-372.0,-203.5,846.5,1372.25,2016.5,499.5,5
845.5,43.5,-486.0,-132.25,-941.5,1142.0,2573.75,535.5,5
927.0,57.5,-304.75,-36.75,-761.75,983.5,2977.0,759.5,5
990.75,-8.0,-30.75,7.0,-880.25,796.25,2987.0,1115.25,5
1026.5,-12.25,148.75,-26.25,-1085.5,696.25,2994.0,1333.25,5
-63.75,-5.25,524.25,-23.75,537.25,593.0,2998.5,1343.5,5
-832.75,41.0,726.0,41.0,1126.25,59.75,2994.25,1169.5,5
-725.5,78.75,405.75,131.5,771.75,-79.5,2990.75,887.25,5
-674.75,111.0,-2.25,110.5,614.25,-353.25,3000.25,809.75,5
-705.75,104.75,-232.0,114.75,1523.75,-834.5,2880.75,789.75,5
-747.5,34.0,-364.25,87.25,1167.5,-1487.5,1594.75,761.5,5
-644.0,75.0,-381.75,27.75,876.5,-2226.5,-296.5,643.0,5
-592.75,14.25,-166.5,108.25,1172.25,-2367.25,-995.75,500.0,5
-399.0,-76.75,-34.5,189.0,1124.25,-2111.5,-992.0,421.0,5
-463.75,-79.5,76.75,235.5,1001.25,-1892.5,-987.25,112.25,5
-130.25,-126.25,207.0,243.0,738.0,-2071.5,-978.5,-422.0,5
691.25,-160.5,150.25,185.0,1729.75,-2056.5,-980.75,-475.0,5
647.25,-182.0,124.75,124.5,2748.25,-1939.5,-972.0,-549.0,5
677.0,-110.0,230.75,48.25,2601.75,-2046.0,-1651.75,-671.5,5
-379.25,-55.5,314.5,-38.5,2756.0,-2440.75,-2476.0,-380.5,5
-1243.0,-27.0,150.0,-26.25,2819.25,-2685.5,-2963.5,-66.25,5
-1184.0,-7.5,-80.5,15.25,2799.75,-2672.5,-2955.0,170.75,5
-1210.75,-2.5,-191.25,2.75,2066.5,-2699.5,-2567.5,594.5,5
-1267.75,20.0,-256.0,-33.75,-287.25,-2640.5,-2410.5,717.0,5
-1277.75,-8.0,-228.25,-8.0,-1547.0,-2609.5,-2231.75,-347.75,5
-1236.25,31.75,-191.75,13.75,-1553.5,-2346.5,-2149.25,-1524.0,5
-969.75,78.0,-116.25,43.5,-1556.5,-1323.75,-2082.25,-1729.0,5
-559.5,54.75,-90.0,67.25,-1336.0,-1004.0,-2057.75,-1764.75,5
-259.0,45.75,-73.0,41.75,-572.0,-1614.25,-2179.75,-1854.0,5
120.25,79.75,101.5,19.5,-253.5,-2111.25,-2357.0,-1858.25,5
143.25,144.5,388.5,-16.0,-541.5,-2067.25,-2483.0,-1834.25,5
396.25,185.25,513.25,34.0,-767.0,-1950.75,-2458.5,-1824.0,5
739.25,216.75,169.25,53.5,-963.75,-1557.75,-2258.75,-1488.75,5
861.5,216.5,-92.5,54.25,-895.25,-755.5,-1819.0,289.75,5
887.5,211.75,-220.75,36.25,595.0,1277.75,-1420.25,363.25,5
975.75,220.0,-126.0,6.75,-993.25,1884.25,-1022.25,435.75,5
790.25,190.0,170.25,5.75,-995.75,1913.25,-336.75,617.25,5
267.25,154.75,241.25,-42.75,-1153.5,1943.5,208.75,764.25,5
-388.5,103.5,271.0,-45.25,-991.25,2043.25,408.0,804.75,5
-992.5,-64.25,177.25,3.75,-850.75,2206.0,641.0,833.0,5
-1015.5,-202.25,105.0,11.5,-883.25,2366.25,902.5,916.0,5
-694.75,-250.0,102.25,-17.5,-543.75,2467.75,970.75,1065.0,5
47.5,-298.75,128.0,-24.0,244.75,2499.75,832.75,1141.75,5
792.0,-234.75,166.75,-21.25,301.25,2424.75,692.75,1178.0,5
745.25,-115.5,77.75,6.0,-1304.0,2355.0,1282.5,1241.5,5
349.75,-44.75,2.0,82.25,-2009.5,2355.25,1956.0,1302.0,5
-39.5,-26.5,12.75,161.75,-203.0,2377.0,2152.5,1276.0,5
-183.5,10.25,-55.75,183.5,-320.75,2476.0,2275.5,1255.5,5
-358.25,60.75,-193.25,130.0,-330.0,2612.0,2448.5,1186.75,5
-327.25,58.0,-397.0,56.25,-762.25,2684.5,2468.0,412.75,5
-207.0,44.5,-349.75,-51.5,-684.75,2699.0,2471.0,-6.0,5
-61.5,75.0,-171.25,-202.25,705.0,2318.25,2524.25,193.75,5
78.0,35.25,-78.75,-313.0,1010.0,1887.25,2426.75,509.75,5
-30.0,-26.75,194.0,-357.5,818.5,1454.0,1756.5,-55.0,5
-51.0,3.5,494.75,-274.25,430.5,1330.25,777.25,-837.0,5
-105.5,1.25,483.0,-175.5,-64.25,1308.25,439.0,-876.25,5
-88.25,5.75,17.5,-147.25,-65.0,1309.0,187.75,-1041.0,5
218.5,28.5,-180.5,-87.75,437.75,805.75,188.5,-347.0,5
471.75,91.25,-363.0,-112.5,-67.5,261.75,-21.75,444.25,5
474.75,124.5,-445.0,-138.75,-241.0,203.75,289.25,635.25,5
623.25,93.75,-374.75,-143.25,-141.25,891.25,325.5,552.0,5
631.5,44.5,-445.5,-156.75,497.75,1229.25,344.0,576.0,5
595.75,4.0,-337.25,-170.5,502.75,912.25,393.0,680.25,5
509.25,107.0,-297.75,-239.0,612.0,990.75,447.5,693.5,5
329.0,111.25,-269.75,-171.5,1673.0,525.25,412.25,425.5,5
-24.0,256.0,-605.25,-295.25,1599.75,-166.0,596.5,-163.0,5
-611.5,621.5,-731.75,-549.75,449.75,-133.0,1245.5,-1067.25,5
-708.5,731.75,-533.25,-594.0,195.0,428.0,1508.5,-1171.0,5
-676.75,545.75,-418.5,-560.0,197.0,897.0,1326.0,-1216.5,5
-769.25,232.25,-196.0,-511.75,910.0,575.75,1122.25,-1189.5,5
-818.0,116.25,116.25,-421.25,834.75,481.5,1009.0,-1346.25,5
-802.75,72.25,245.5,-240.75,877.0,459.75,916.5,-1643.75,5
-732.75,127.25,127.75,-158.0,761.0,533.25,245.75,-1688.0,5
-369.25,-8.75,152.0,-69.75,3110.0,620.25,-482.5,-1588.0,5
-89.0,-128.25,323.5,6.5,2830.75,264.0,-908.75,-1577.0,5
291.0,-567.5,662.0,304.5,2589.75,365.75,-1416.0,-1841.75,5
964.0,-957.25,975.25,1008.75,2389.5,296.0,-1909.25,-2105.75,5
1068.75,-885.5,901.25,1006.5,2211.75,273.5,-1931.5,-2115.0,5
978.25,-779.5,755.75,789.25,1759.25,735.0,-1771.0,-2181.5,5
1068.0,-767.0,640.0,861.25,-185.25,862.75,-1492.25,-2360.75,5
1037.5,-477.0,433.75,736.75,-492.0,802.0,-834.75,-2277.0,5
744.75,-445.25,371.25,685.75,-1033.75,732.5,-173.75,-2264.5,5
567.75,-262.5,275.25,516.25,-1070.25,538.75,615.75,-2046.5,5
284.25,-224.75,105.0,320.5,-1305.5,79.0,1396.0,-2002.25,5
147.0,-173.75,-20.75,322.0,341.5,-588.75,1901.75,-1883.0,5
-80.25,-94.75,-63.75,131.75,-13.5,-653.25,1923.0,-1818.0,5
-198.75,-38.25,1.25,143.0,-862.25,-1017.5,1900.25,-1751.25,5
-283.25,11.75,149.75,5.0,-1947.75,-1470.75,1906.5,-1647.0,5
-320.5,3.25,337.75,43.25,-1741.75,-2017.25,1862.75,-1451.75,5
-332.75,60.75,439.75,22.75,-1772.5,-2031.75,1850.75,-897.5,5
-426.5,56.5,436.75,1.0,-1838.0,-2032.5,1782.5,-350.25,5
-422.0,101.75,232.75,-19.0,-782.75,-1982.75,1761.25,284.0,5
-354.5,126.25,-123.25,-64.0,-942.0,-1923.0,1730.0,560.5,5
-269.5,145.75,-453.0,-52.5,-983.75,-1960.5,1724.25,1098.75,5
-262.0,132.25,-632.0,-87.25,-1043.75,-2045.0,1712.25,2273.75,5
-158.25,176.75,-606.25,-69.5,-1056.75,-2255.25,1728.25,2692.75,5
-156.75,199.25,-520.25,-117.5,-1114.5,-2355.5,1766.75,2627.25,5
-122.5,190.0,-485.5,-145.25,-1186.75,-2359.75,1804.75,2502.25,5
-67.5,202.5,-432.5,-186.0,-1271.0,-2348.25,1848.5,2425.0,5
-76.5,166.0,-367.25,-167.25,-1282.25,-2324.5,1852.5,2209.25,5
-62.75,175.25,-336.5,-143.5,-1247.75,-2285.5,1885.0,2049.0,5
-87.0,157.25,-325.5,-138.25,-1236.75,-2207.0,1939.5,1951.0,5
-81.75,152.0,-235.5,-101.0,-1201.75,-2129.25,1987.0,1844.5,5
-109.25,132.5,-203.0,-11.25,-1192.5,-2116.5,1995.0,1742.25,5
-102.75,134.0,-259.25,11.25,-1160.25,-2271.5,2003.75,1773.25,5
-106.25,143.75,-208.0,-72.0,-1047.25,-2400.5,1951.0,1922.75,5
-94.0,134.75,-145.5,-138.0,-861.75,-1645.0,1789.5,2064.5,5
-76.25,135.5,-128.5,-297.25,-737.25,-311.75,1694.5,1973.0,5
-81.25,139.5,-63.25,-302.0,-688.25,-133.0,1579.5,1955.25,5
-66.5,139.75,-7.25,-239.5,-687.0,298.5,1466.0,1983.25,5
-66.5,113.0,69.5,-269.5,-661.75,339.25,1207.25,1879.0,5
-54.75,75.25,114.25,-204.0,-267.75,473.75,286.0,1703.5,5
-56.5,40.5,127.25,-114.75,107.5,724.5,-1268.25,1567.75,5
-62.0,37.75,211.75,-37.0,245.25,845.75,-1800.0,1521.25,5
-85.0,45.25,235.0,26.75,216.0,952.75,-1871.5,1371.25,5
-137.25,59.25,197.25,36.5,80.0,1206.25,-1574.5,1231.0,5
-206.0,57.25,97.75,40.25,150.25,1521.5,-1069.75,1310.0,5
-212.25,60.5,18.25,5.0,-286.25,1493.0,-649.5,1337.75,5
-196.75,67.25,100.5,-67.0,-972.5,1269.25,-434.25,1185.25,5
-156.0,32.5,112.25,-65.75,-1218.0,354.25,-397.5,962.5,5
-52.75,-8.75,-74.0,-70.5,-1421.75,-855.5,-460.25,820.25,5
40.25,-48.25,-111.0,-100.75,-1289.0,-1065.25,-644.5,610.75,5
170.75,-78.25,141.5,-92.25,-1189.25,-1169.75,-841.5,74.75,5
298.75,-51.5,68.0,-60.5,-1143.0,-1060.5,-1029.75,-617.0,5
451.0,13.25,-289.25,-52.5,-1138.75,-1140.0,-1173.75,-1242.5,5
483.0,48.25,-425.25,-39.5,-1185.75,-888.25,-1143.5,-1485.25,5
360.5,30.5,-465.5,92.25,-1242.75,-537.75,-1099.5,-1393.0,5
201.5,1.75,-429.75,126.5,-1279.25,-357.75,-993.75,-1075.75,5
91.25,10.25,-350.25,-142.0,-1335.75,-387.5,-880.25,-896.0,5
-12.5,-1.5,-232.75,-332.75,-1383.75,-578.25,-943.0,-874.25,5
-125.75,-55.0,-76.75,-398.75,-1390.25,-649.5,-1093.5,-1297.75,5
-49.5,-96.75,-20.25,-391.75,-1324.5,-725.0,-1159.75,-1343.75,5
18.75,-121.0,-12.25,-229.75,-700.75,-756.25,-1298.5,-1405.0,5
-119.0,-114.75,-25.25,-137.5,-84.0,-898.5,-1486.5,-1467.0,5
-294.5,-132.25,-51.25,-33.0,244.25,-905.0,-1572.5,-1529.25,5
-340.25,-168.5,44.0,-2.25,1586.5,-708.25,-1606.0,-1641.75,5
-402.0,-123.75,146.5,53.75,2110.5,-44.75,-1587.5,-1798.0,5
-417.25,-52.0,294.75,31.5,1721.75,504.25,-1604.75,-1973.25,5
-316.25,29.25,545.25,-77.25,892.0,943.0,-1494.5,-2150.5,5
-159.0,72.75,540.75,29.0,192.5,1260.0,-1404.0,-2311.0,5
29.0,9.0,529.0,129.75,141.25,1131.0,-878.5,-2451.75,5
105.25,-13.5,356.25,168.5,295.25,890.25,-409.25,-2531.75,5
100.0,-10.5,-6.0,186.75,493.25,386.5,-546.25,-2565.75,5
76.75,-29.0,-237.0,179.25,540.25,-70.0,-617.75,-2464.25,5
25.25,-37.75,-443.5,132.75,239.25,-348.25,-665.25,-544.25,5
2.5,-38.75,-396.0,42.5,-391.5,-160.75,-548.75,-519.75,5
30.5,-23.5,-372.5,-108.0,-931.0,449.75,-746.25,-434.0,5
3.5,-44.5,-397.25,-254.0,-933.25,985.75,-1114.75,-313.25,5
-44.75,-55.0,-414.25,-241.25,-935.0,1023.25,-1014.5,-250.0,5
-46.25,-55.75,-324.75,-119.5,-934.75,1042.0,-518.5,-197.75,5
-23.0,-30.0,-152.5,10.0,236.5,1132.5,-519.25,-57.0,5
-18.0,-28.5,-19.0,141.5,959.25,1100.5,-376.0,376.25,5
-133.25,-363.25,220.0,-100.0,707.75,718.5,53.75,1073.25,5
-218.25,-634.5,210.5,-442.5,1198.25,797.5,89.5,1004.25,5
551.25,-378.75,-88.0,-452.25,1503.25,1129.25,-69.5,196.5,5
1122.5,-88.5,-360.25,-348.5,1390.0,1292.75,-137.0,-464.0,5
805.5,-40.0,-683.5,-321.75,1113.0,1406.25,-358.5,-822.5,5
982.75,366.75,-829.0,-82.25,1235.25,1330.5,-414.75,-807.75,5
777.25,579.5,-843.25,-154.75,1251.25,1286.0,-462.25,-775.5,5
448.25,654.75,-776.0,-143.0,1275.75,1379.25,-408.25,-446.25,5
222.25,724.0,-494.5,-65.5,1289.5,1331.5,-327.0,-152.75,5
-105.75,650.25,-158.75,-18.75,1502.25,1552.75,-359.0,-46.75,5
-222.75,499.25,90.5,88.75,1546.25,1472.5,-354.25,-113.25,5
-272.75,394.5,210.25,146.5,1797.25,1446.25,-405.25,-249.25,5
-132.25,235.75,503.75,234.5,2162.5,1390.5,-283.25,-430.25,5
-305.75,188.5,932.0,257.75,2154.25,1270.0,-51.25,-610.25,5
-387.0,144.25,1196.75,227.0,1734.25,1257.25,225.0,-599.25,5
-451.25,92.75,1083.25,108.5,1018.25,1104.75,544.25,-639.25,5
-537.25,-60.0,670.5,102.0,217.25,975.75,857.25,-454.75,5
-512.25,-272.75,526.25,120.75,-346.5,795.75,1052.5,-72.0,5
-435.5,-317.75,278.0,85.75,-244.75,715.5,1121.5,328.5,5
-309.75,-343.0,36.0,48.75,-91.5,633.5,1126.75,993.75,5
-138.0,-271.75,176.75,-58.5,191.0,574.0,1036.5,1305.75,5
78.25,-271.75,290.0,-28.5,381.75,495.25,839.5,1427.25,5
179.0,-248.75,-97.5,71.25,445.5,446.0,668.0,1075.0,5
275.5,-120.75,-245.75,196.75,379.0,425.25,524.25,928.0,5
212.5,-1.5,-227.5,303.5,215.5,345.5,429.75,941.25,5
228.25,65.0,-376.25,305.75,12.5,353.0,287.5,960.5,5
237.75,55.5,-627.5,327.25,-133.25,286.75,169.75,1262.5,5
151.5,18.5,-830.75,299.25,-317.75,193.25,128.25,1156.5,5
70.25,-70.0,-605.25,373.0,-579.5,-13.0,340.5,780.0,5
-67.0,-84.5,-340.5,550.25,-758.5,-207.75,632.25,375.5,5
-25.0,-71.75,-110.75,419.75,-859.0,-395.0,731.0,21.75,5
-3.0,24.5,-47.0,179.5,-819.25,-569.75,849.75,-354.25,5
130.5,33.0,-122.25,47.5,-1647.25,-643.5,1022.5,-521.0,5
431.25,-118.5,58.75,-50.5,-2794.25,-641.75,1275.75,-569.0,5
676.5,-177.0,543.5,-122.25,-2750.25,-529.0,1621.0,-862.0,5
535.25,-215.0,943.0,-51.75,-2719.0,-348.0,1935.0,-893.75,5
179.75,-190.75,1020.25,65.5,-2639.5,-106.25,2235.25,-636.5,5
-90.5,-179.25,913.0,49.0,-2248.5,131.75,2361.75,-404.75,5
-430.75,-138.75,805.5,-2.25,-1587.75,482.75,2386.0,-59.0,5
-667.5,-45.5,680.25,-43.5,-680.75,815.75,2413.0,254.25,5
-857.75,-8.5,505.0,-75.0,-593.5,958.75,2422.25,325.25,5
-730.5,40.25,331.25,-91.0,-571.5,947.5,2428.25,483.75,5
-289.25,137.5,211.25,-102.0,-496.75,910.75,2459.0,594.5,5
-113.75,155.5,280.75,-54.5,-352.0,890.75,2443.75,715.5,5
-217.0,103.0,201.5,-3.25,-189.75,866.25,2424.25,863.25,5
-473.0,85.25,-98.25,10.25,-133.25,867.0,2399.75,896.25,5
-575.0,36.0,-299.5,52.0,-62.25,875.5,2406.5,1065.25,5
-461.25,39.75,-380.75,38.0,69.0,844.0,2421.5,1200.25,5
-330.5,56.25,-265.5,-20.5,128.0,844.25,2417.75,1220.75,5
-183.75,68.25,-49.0,-24.0,172.25,833.75,2133.25,1179.75,5
126.0,62.75,-95.75,-19.0,280.0,825.0,1823.0,1186.5,5
344.0,45.25,-166.0,-42.0,321.75,833.25,1632.0,1289.75,5
208.0,68.0,4.25,-90.5,308.25,579.75,1491.25,1341.75,5
99.5,99.25,131.0,-86.25,605.5,153.0,1316.0,1417.75,5
6.25,87.75,159.5,-64.5,900.0,-81.0,1096.25,1331.5,5
51.25,49.75,117.25,-85.0,1051.5,-184.25,876.0,535.25,5
291.0,6.0,75.25,-87.0,1259.75,-311.5,657.5,478.75,5
279.0,-38.0,207.5,-95.0,1634.25,-422.75,466.25,538.75,5
82.75,-82.25,299.75,-103.5,1521.75,-549.0,-42.0,-87.75,5
-215.75,-131.0,117.0,-114.75,1360.75,-739.0,-1115.25,-449.75,5
-451.5,-143.25,56.0,-117.5,1198.75,-1005.5,-1723.0,-395.0,5
-408.75,-129.75,371.25,-109.5,1120.25,-1243.0,-1830.75,-665.25,5
-329.25,-116.5,452.75,-113.5,372.75,-1330.0,-1974.5,-938.25,5
-210.5,-127.25,77.0,-81.25,-741.0,-1368.75,-1939.0,-1130.5,5
-132.5,-133.5,-268.25,-42.0,-637.75,-1371.25,-1857.5,-1411.25,5
-83.0,-96.5,-587.75,-63.5,-523.5,-1401.75,-1803.0,-1507.75,5
52.25,-41.75,-739.5,-69.0,-368.5,-1335.25,-1664.0,-1534.0,5
185.0,-55.0,-759.25,-70.0,-211.0,-1309.25,-1685.25,-1606.25,5
324.25,-102.75,-796.75,-100.5,-89.75,-1266.25,-1764.5,-1677.0,5
326.0,-108.5,-676.25,-90.75,-99.75,-1228.25,-1666.5,-1745.5,5
204.0,-115.25,-886.0,-78.5,-69.5,-1240.0,-1587.0,-1873.0,5
108.0,-100.25,-952.5,-40.0,55.75,-1260.5,-1492.75,-2014.75,5
208.75,-54.5,-826.25,-4.5,198.5,-1240.5,-1444.0,-1728.75,5
409.0,-23.25,-795.5,-12.5,267.75,-1175.25,-1624.5,-1648.25,5
274.0,2.5,-604.75,-10.5,-634.0,-1129.5,-1688.0,-2110.5,5
-135.5,5.25,-486.25,-4.25,-1507.25,-1083.0,-1799.5,-2675.75,5
-406.5,11.75,-277.5,34.75,-1623.75,-1036.25,-1948.0,-2538.5,5
-548.25,69.25,-55.5,32.75,-1607.0,-1007.75,-1943.0,-2238.5,5
-418.75,98.25,194.75,-2.5,-1596.0,-965.25,-1929.5,-2218.25,5
-111.75,133.5,360.5,-83.0,-1568.75,-975.0,-1813.5,-2209.0,5
-165.75,187.25,431.25,-127.75,-1505.25,-191.75,-1873.25,-2127.0,5
-359.25,165.75,497.25,-58.75,-1447.75,880.5,-2104.25,-2622.5,5
-403.5,150.0,462.0,-7.0,-1374.5,1052.0,-2092.0,-2847.0,5
-454.0,121.25,410.25,15.25,-1217.25,1120.5,-2071.0,-1917.0,5
-411.5,69.5,297.0,-10.5,-737.25,1121.75,-2179.5,-1366.0,5
-451.5,33.5,258.5,-18.75,-108.75,1155.25,-2014.75,-974.0,5
-272.25,-94.25,271.25,1.25,719.25,1293.5,-1731.25,-473.0,5
36.75,-366.75,299.5,-49.75,2031.5,1431.5,-1340.75,108.5,5
-11.75,-619.75,329.5,-150.0,2460.5,1642.0,-1307.25,290.75,5
-310.25,-604.5,437.5,-112.5,2567.0,1810.0,-1590.5,-66.25,5
-605.75,-420.0,774.5,332.75,2772.5,1852.5,-1466.0,-213.5,5
-525.5,385.25,1117.0,656.75,2882.5,1803.0,-1254.25,-548.75,5
-439.5,934.75,996.0,642.25,2905.75,1875.25,-1009.75,-832.75,5
-442.75,824.25,679.75,560.0,2914.5,1824.5,-843.25,-839.75,5
-228.75,613.25,460.5,535.5,2663.75,1464.25,-802.75,-969.25,5
-145.25,684.5,227.5,303.0,2271.5,919.5,-484.25,-861.0,5
7.25,360.5,11.75,277.75,1748.5,365.25,-289.25,-901.25,5
101.75,462.25,-260.0,151.5,1092.25,-384.25,-248.5,-739.0,5
201.5,207.75,-358.25,41.25,370.75,-1173.5,-178.0,-742.5,5
321.25,242.0,-296.0,-115.5,-310.5,-1685.0,-56.5,-512.25,5
298.0,113.25,-254.25,-228.25,-774.5,-2202.5,64.75,-366.5,5
337.75,61.75,-211.0,-291.0,-692.5,-2257.5,120.25,-442.75,5
327.0,29.75,-164.5,-372.0,-153.5,-2257.75,324.5,-360.25,5
287.0,-82.5,-77.5,-334.0,875.0,-2269.25,276.25,-104.25,5
224.25,-135.75,-84.25,-310.25,1103.0,-2171.0,61.25,230.25,5
182.25,-259.0,-126.25,-238.5,1135.25,-1654.0,92.0,636.25,5
191.25,-226.5,-45.5,-191.0,1148.0,-1066.5,211.75,1116.5,5
206.25,-248.25,-59.5,-196.25,1167.25,-434.75,329.0,1087.25,5
210.75,-217.5,-303.75,-253.0,1171.25,-163.5,304.25,734.0,5
222.75,-244.75,-512.5,-245.5,1157.5,94.25,217.5,439.0,5
218.0,-208.5,-709.25,-175.0,1155.75,360.75,161.0,451.0,5
108.5,-191.25,-866.25,-150.25,1194.25,621.0,180.0,639.25,5
60.25,-145.5,-887.25,-216.5,1246.25,869.0,233.5,840.75,5
88.25,-134.0,-838.5,-250.25,1241.25,1062.25,-312.75,802.0,5
116.0,-142.0,-704.0,-202.0,1208.0,1189.0,-1223.5,516.0,5
171.5,-127.0,-493.25,-205.25,1237.25,1341.0,-1628.75,442.25,5
221.0,-132.75,-241.75,-273.5,1342.75,1440.75,-1504.25,192.25,5
230.5,-58.0,-119.75,-333.0,1516.0,1542.75,-1453.5,-127.5,5
230.5,-49.5,-19.25,-346.0,1687.0,1593.0,-1383.5,-386.75,5
221.5,-51.25,25.25,-296.75,1931.75,1599.5,-1232.25,-636.25,5
162.25,-84.25,30.25,-280.25,2202.75,1440.0,-1025.5,-751.25,5
130.75,-118.75,77.25,-277.25,2448.0,809.75,-1003.75,-891.5,5
137.0,-204.5,39.25,-202.0,2797.0,472.5,-1188.0,-900.0,5
160.75,-241.5,91.5,-105.25,2796.5,455.75,-1233.25,-668.75,5
170.25,-181.0,115.0,4.75,1909.0,388.25,-1322.25,574.75,5
178.5,-176.25,77.25,73.25,1178.0,257.0,-974.0,1068.5,5
159.25,-170.0,38.0,90.5,998.0,250.0,-500.5,1062.75,5
133.0,-153.25,39.75,46.25,1014.5,283.25,-319.25,1050.5,5
161.25,-87.25,103.25,4.75,627.25,248.75,-329.75,1045.5,5
180.25,-63.75,118.75,-22.75,230.75,283.5,-231.25,1037.25,5
214.25,-96.5,187.75,-71.0,50.75,348.0,121.75,1031.75,5
264.75,-100.75,237.5,-32.25,-9.25,277.0,327.5,1024.5,5
285.0,-86.0,230.25,-18.5,-14.0,88.0,494.0,1018.5,5
226.5,-13.25,167.0,12.0,30.25,-153.0,457.75,1014.5,5
129.0,33.75,68.75,22.5,56.25,-358.25,332.0,1008.25,5
37.0,127.25,-46.5,-41.0,83.0,-398.0,281.25,1005.25,5
5.5,247.0,-88.5,-33.75,93.5,-256.0,434.0,1000.0,5
27.75,283.5,-90.25,-15.5,-244.0,-103.5,468.75,998.5,5
-47.0,198.0,-97.5,-62.0,-599.5,111.5,521.5,1098.5,5
-110.0,114.25,-63.0,-33.25,-884.75,221.5,469.0,874.25,5
-103.5,59.5,-68.25,89.25,-1129.25,183.0,470.75,549.75,5
-97.5,-69.75,-82.5,158.75,-1298.0,237.25,873.5,221.5,5
-101.25,-136.75,-56.75,179.25,-1489.0,303.5,1529.0,42.25,5
-122.75,-141.5,3.0,123.5,-1289.75,245.5,2138.25,37.5,5
-116.5,-88.5,56.5,108.5,-1056.0,132.5,2335.5,24.25,5
-122.0,-52.25,152.5,85.75,-897.0,42.25,2092.5,29.5,5
-82.25,-1.75,236.25,40.5,-764.25,-40.75,1895.25,144.0,5
-77.25,40.75,234.75,34.75,-719.25,-188.0,1978.0,260.25,5
-59.0,15.25,202.25,-17.5,476.5,-373.75,2145.0,299.75,5
52.25,71.0,129.25,-33.5,1002.5,-416.75,1965.75,344.25,5
36.75,132.25,84.75,-69.0,820.25,-371.75,1674.5,488.0,5
56.0,162.75,67.25,-46.5,570.5,-353.0,1593.25,634.75,5
113.0,192.5,7.0,38.75,281.5,-287.75,1420.25,730.75,5
36.5,165.75,-16.5,93.0,-2.0,-317.0,1220.5,721.5,5
-18.5,70.0,20.75,74.75,-195.25,-402.0,1057.5,776.75,5
-82.0,32.0,-18.25,-18.0,-1204.0,-426.25,1034.5,718.75,5
-118.0,47.5,-112.25,-98.5,-2189.5,-480.5,1006.75,460.5,5
14.5,-222.25,-174.75,-376.5,-2578.5,-794.0,927.5,498.25,5
473.0,-589.25,-350.75,-723.5,-2315.25,-943.75,933.5,314.0,5
527.5,-422.5,-558.5,-667.25,-1821.75,-624.5,1033.5,-619.0,5
468.0,197.5,-506.5,-481.5,-1451.5,-378.5,1039.75,-1592.25,5
759.75,413.75,-484.25,-448.25,-1303.75,-383.75,1040.75,-2183.5,5
952.75,409.25,-397.5,-214.25,-1551.75,-348.0,1041.5,-2255.0,5
610.0,252.0,-129.0,-190.25,-2508.5,-463.0,1024.5,-2029.75,5
219.25,132.25,-61.0,-56.5,-2110.75,-282.0,1031.0,-1873.5,5
-165.0,-3.5,4.5,23.25,-1983.25,-152.0,1064.25,-1676.25,5
-404.25,-98.0,185.75,42.75,-1837.25,316.0,1073.5,-1404.0,5
-404.25,-238.75,342.5,47.0,-1402.5,807.25,1016.25,-860.0,5
-535.0,-637.0,488.25,158.25,-1069.0,1349.5,966.75,-1024.0,5
-1161.25,-137.0,833.75,903.5,-690.75,1536.0,940.25,-1870.0,5
-1073.0,790.25,886.75,990.5,-742.25,1438.75,951.0,-1800.75,5
-990.5,750.0,600.75,833.5,-881.0,1431.5,932.25,-1505.25,5
-1023.75,463.0,461.0,870.75,-909.0,1217.75,802.0,-1664.25,5
-739.5,700.5,223.75,684.5,-1003.5,1071.0,-426.5,-1329.0,5
-608.5,287.25,241.25,517.25,-1333.5,1014.75,-1131.5,-1171.0,5
-345.25,365.25,376.0,389.5,-1498.25,645.75,-1305.0,743.5,5
80.75,136.0,314.0,154.25,-1717.75,360.5,-1453.0,753.75,5
382.25,58.5,238.0,115.5,-1395.25,197.75,-1466.25,658.25,5
334.0,-71.5,85.5,-25.75,-120.75,167.75,-1765.5,674.25,5
66.75,-84.5,-64.0,-10.75,390.25,-41.25,-1893.25,601.25,5
-77.5,1.5,-107.5,-79.25,676.0,-180.0,-2070.0,684.25,5
-319.0,-71.5,203.0,-25.5,640.75,-150.0,-2200.0,569.5,5
-314.75,-7.0,469.0,-19.25,545.0,-129.25,-2352.25,556.0,5
-247.5,-157.25,161.75,-72.0,256.0,-10.5,-2546.75,499.75,5
24.25,-63.0,-473.0,-52.5,5.75,167.0,-2724.0,589.25,5
145.5,-2.0,-1136.5,-57.25,-54.75,333.75,-2912.75,680.75,5
-68.25,27.0,-1199.0,-42.75,-167.5,474.25,-2979.25,413.75,5
-101.25,-59.25,-912.25,-79.5,-452.5,594.25,-2974.25,84.75,5
-139.0,-191.0,-572.5,-119.75,-760.0,471.75,-1558.0,43.0,5
61.75,-505.5,-226.0,-456.25,-1172.0,-14.0,-1065.75,470.75,5
652.5,-768.25,-114.5,-699.75,-1138.25,-354.0,-1068.25,581.5,5
829.25,-517.5,221.75,-579.0,-782.25,-125.25,-1002.25,24.0,5
843.5,67.5,364.75,-439.0,-692.0,-77.25,-1017.25,-107.25,5
862.75,399.5,-2.5,-439.25,-635.25,-63.0,-245.25,566.75,5
722.25,450.25,-217.75,-265.25,-515.75,23.25,377.75,1139.0,5
527.0,298.5,-234.5,-326.5,-619.5,-66.25,-208.25,582.75,5
427.75,267.75,85.5,-209.75,-556.0,57.75,-1026.75,626.0,5
220.25,93.5,64.0,-180.0,-336.75,71.0,952.75,1590.75,5
212.75,-125.25,-364.25,-111.0,205.75,105.0,955.5,1921.75,5
298.0,-258.75,-405.5,-40.25,507.5,129.75,948.5,2308.25,5
129.5,-233.25,-372.25,-31.0,2365.0,-60.25,951.5,2225.75,5
-164.25,-146.5,-372.0,29.5,2506.0,-181.0,944.0,1534.25,5
-267.25,-149.5,-230.75,58.0,2339.5,-368.75,950.5,324.25,5
-534.0,-106.25,208.0,107.25,2414.25,-559.25,956.0,-532.75,5
-564.0,-123.5,280.0,67.75,2399.0,-838.0,955.25,-1175.5,5
-422.5,-18.5,-85.25,55.25,2323.0,-1110.5,952.0,-787.25,5
-178.5,47.0,-304.75,-3.0,2465.5,-1357.75,933.75,-503.75,5
69.5,-40.75,-246.75,-12.75,2800.75,-1598.75,-1074.5,-1022.0,5
382.5,-69.75,-172.5,-74.75,3067.75,-1555.5,-1233.5,-1030.75,5
744.5,-127.25,-173.75,-113.0,1240.75,-1558.0,-2833.5,-1129.5,5
700.25,-174.75,-142.75,-16.75,850.75,-1587.25,-3005.5,-1678.25,5
413.0,-125.5,-109.75,116.75,418.0,-1605.25,-2618.5,-2300.25,5
164.0,-101.5,35.75,223.0,262.75,-965.25,-1948.5,-2145.0,5
132.0,-43.5,-14.25,283.75,344.75,-268.5,-1748.5,-2084.25,5
81.75,27.0,-2.75,285.0,430.5,137.0,-1473.0,-2017.25,5
100.0,33.75,408.75,228.5,414.0,52.25,-1231.25,-1767.75,5
77.0,15.25,825.75,213.0,2503.0,169.25,-561.25,-1826.0,5
84.25,75.0,820.0,217.25,2522.5,457.5,248.25,-1608.5,5
180.5,43.25,439.5,170.0,2739.0,614.25,1257.25,-1015.0,5
-153.75,-251.25,364.75,-26.0,2960.75,642.75,969.5,-982.75,5
-179.0,-136.5,562.0,152.25,792.25,623.25,668.5,-1917.75,5
-146.0,393.75,1119.0,617.5,1223.75,868.0,795.75,-2495.0,5
-928.75,547.0,1570.75,615.75,3254.5,790.0,768.75,-2655.0,5
-1022.25,354.0,259.25,591.0,2216.0,429.0,1028.0,-2701.0,5
-955.75,262.0,-700.25,467.25,1448.25,59.75,1345.75,-1951.0,5
-1002.25,195.0,-582.0,-12.0,1150.0,-355.25,1430.25,-1103.75,5
-206.25,111.75,-683.0,-191.0,2077.25,-227.5,1445.5,-902.5,5
-933.0,61.75,-277.75,258.0,500.75,-58.5,1678.25,-688.75,5
-1015.0,42.75,-264.75,96.0,-458.75,-333.75,1572.5,-221.0,5
-871.0,53.0,-42.75,34.25,1629.25,-353.75,1879.5,-474.0,5
-1007.25,65.5,195.5,273.5,1546.5,-422.5,2106.75,-828.0,5
-735.0,136.0,199.75,139.75,1400.75,-523.75,2257.0,-963.5,5
-644.75,171.0,79.75,211.5,1557.25,-494.25,1522.75,-153.0,5
-428.0,210.25,-240.5,78.75,1661.0,-543.0,752.5,822.0,5
-265.25,217.5,-90.75,32.0,1590.5,-836.0,131.0,829.5,5
-130.5,190.25,33.75,68.25,1337.75,-1137.25,-186.75,1186.0,5
-8.5,182.0,316.75,29.75,1300.75,-369.5,-275.0,1252.75,5
-98.5,132.25,410.5,-46.5,1351.25,475.5,-294.75,1548.75,5
-55.25,74.25,312.5,-167.75,1317.75,799.25,35.75,1988.0,5
-31.5,45.5,225.75,-177.0,1212.25,937.5,-172.75,2258.75,5
7.0,-13.0,318.5,-171.5,982.75,1052.75,-957.25,2348.75,5
79.25,-71.5,697.0,-160.75,-113.25,883.75,-1896.0,2242.75,5
150.5,-106.5,589.25,-242.25,-445.25,19.75,-2295.75,2163.75,5
231.75,-158.75,123.75,-219.75,-385.5,-312.5,-1916.5,2010.75,5
269.75,-157.0,-112.0,-254.75,-1310.5,-252.0,-1423.5,882.25,5
175.75,-155.25,-297.25,-253.25,-1411.25,37.75,-1633.75,937.75,5
46.5,-215.0,-404.75,-240.25,-1484.25,638.75,-2128.75,676.0,5
-57.75,-257.0,-432.5,-271.75,-1558.0,705.75,-2592.5,335.0,5
-21.5,-284.75,-482.25,-267.5,-1011.5,225.25,-2484.5,753.5,5
71.0,-305.25,-328.25,-306.0,-621.5,-190.5,-2209.75,898.75,5
109.25,-302.75,-320.0,-362.5,829.5,-350.5,-2058.0,1013.75,5
271.25,-277.5,-225.5,-429.75,1411.5,-439.0,-1747.5,938.0,5
366.25,-277.75,294.75,-391.25,1851.5,-500.25,-1305.25,-212.25,5
417.75,-256.25,645.0,-376.75,2057.0,-477.25,-840.75,-980.5,5
511.75,-223.75,476.75,-334.25,1944.0,-379.5,-370.75,-1681.5,5
882.5,-189.75,508.75,-341.75,1459.5,-190.5,-87.75,-1772.75,5
1026.0,-132.5,899.25,-329.25,811.25,-29.75,145.0,-1535.75,5
557.5,-125.0,218.0,-282.0,106.75,-38.5,392.75,-1298.75,5
226.75,-54.5,-760.5,-423.0,-582.0,-297.5,506.5,-1011.75,5
175.75,125.5,-500.75,-544.0,-395.0,-1454.5,695.75,-738.75,5
265.0,266.5,219.25,-565.5,-2119.5,-2369.75,640.25,-398.0,5
330.75,84.5,198.5,-360.75,-1254.0,-1330.75,151.25,-411.0,5
216.25,-216.0,-489.0,42.75,-874.0,-426.0,-32.25,55.25,5
43.25,-338.0,-427.5,304.5,-799.5,-224.75,-414.0,482.25,5
44.5,-371.25,-286.25,361.0,-791.25,142.25,-294.75,982.0,5
80.0,-309.5,-347.5,364.25,-814.25,1055.0,-49.75,1137.75,5
-37.25,-256.0,-599.0,315.0,-957.25,1475.25,-97.5,1339.75,5
-128.0,-198.25,-628.5,233.0,-1135.0,1401.0,-253.75,1476.5,5
-293.75,-175.75,-272.5,242.5,-1119.75,3384.75,-217.0,1625.0,5
-292.25,-123.75,-354.75,283.25,-1320.5,3282.5,15.0,1887.75,5
-213.75,-39.0,-638.0,231.25,-2074.0,3189.5,132.25,2204.25,5
-113.25,-14.75,-736.5,165.75,-2065.75,3155.5,363.0,2124.75,5
-13.25,-5.25,-746.0,140.0,-1870.0,3126.5,666.75,1723.25,5
-66.75,12.5,-791.0,79.25,-2052.25,3041.5,977.75,1543.5,5
-113.5,43.0,-529.5,67.75,-2429.75,2981.25,992.75,1943.75,5
-94.0,51.0,-159.0,74.0,-2402.25,2789.5,5.25,1968.5,5
20.5,64.5,94.75,93.25,-2222.75,2208.25,-658.25,1872.0,5
-63.75,49.0,433.25,121.25,-2228.25,1813.75,-583.0,1919.75,5
-224.25,65.75,415.5,60.25,-2504.25,2133.75,-39.0,1984.5,5
-252.25,84.25,664.0,22.0,-2335.25,2335.0,676.25,1813.0,5
-297.75,65.25,1360.0,66.25,-2202.5,1104.75,1027.75,1715.5,5
-292.75,86.5,1326.25,75.0,-1734.25,505.5,1034.25,1083.5,5
-233.0,93.0,1261.5,3.0,-1263.25,756.25,1036.5,483.75,5
-145.25,97.25,588.5,-66.0,-1243.0,704.0,1037.0,132.75,5
-93.25,79.75,-170.5,-41.5,-1373.5,-44.5,1033.5,-213.75,5
-60.25,61.5,-381.75,-31.0,-2279.5,-774.0,1044.25,142.5,5
118.0,68.0,-634.75,-75.75,-1768.5,-1253.0,1036.5,123.0,5
260.0,42.0,-502.5,-126.75,-676.25,-1235.0,1033.0,-276.25,5
196.75,47.25,-451.75,-146.0,793.0,-2781.5,1022.0,-660.0,5
124.25,38.5,-168.25,-73.0,1359.25,-3157.5,1037.25,-791.25,5
42.5,49.0,773.75,-59.5,641.75,-3167.0,-12.5,-840.75,5
-28.25,94.25,1220.25,-117.5,-77.25,-3162.25,-422.75,-921.75,5
-54.0,89.5,679.75,-158.5,-120.0,-3155.0,-471.0,-958.0,5
-81.5,102.0,200.5,-193.5,281.25,-2178.0,-874.25,-1016.75,5
-54.5,85.25,104.75,-90.0,1565.0,-1121.25,-989.75,-1097.0,5
-45.5,26.25,141.5,97.75,1901.0,-1086.25,-993.75,-1126.0,5
-53.0,8.25,297.0,108.25,1440.0,-1085.5,-990.0,-1107.25,5
-102.5,-10.75,-45.0,4.25,743.0,-1086.25,-987.5,-1032.75,5
-113.75,-28.25,-230.25,-113.25,358.0,-1062.75,-992.0,-994.25,5
-77.0,-78.5,-263.25,-95.0,426.5,-692.0,-1191.25,-952.5,5
-84.75,-71.25,-191.75,-67.5,356.75,216.25,-1665.25,-895.25,5
-62.0,6.5,-125.5,-79.25,450.0,249.75,-1881.75,-550.0,5
-34.0,43.25,-66.25,-27.25,323.25,6.25,-654.5,-711.25,5
60.0,72.0,21.25,-36.5,-126.25,-471.25,-988.75,-259.75,5
87.5,90.75,88.0,-44.0,104.0,-1802.0,-994.75,500.5,5
16.75,72.25,220.75,-43.0,-93.0,-2174.0,-953.0,666.5,5
29.25,82.0,-21.75,-120.5,-347.25,-1989.25,-369.25,873.75,5
49.0,92.0,-192.25,-229.5,-21.75,-1085.5,-247.75,1189.5,5
45.75,72.0,-104.0,-187.75,702.25,-390.0,-789.25,1273.25,5
94.0,81.0,-149.0,-92.25,350.5,-0.25,-997.0,917.5,5
311.75,100.0,-296.75,-59.25,46.0,440.75,-1000.5,783.25,5
342.75,87.75,-157.25,31.0,173.5,776.25,-1007.0,608.5,5
133.75,46.5,-93.25,142.0,-106.0,796.25,-1004.25,-36.0,5
110.25,3.0,-71.25,134.0,18.0,672.0,-1012.0,-188.0,5
55.0,-23.0,171.75,-21.5,149.75,262.0,-1011.25,-319.75,5
-18.5,-11.75,289.75,-149.25,123.75,-228.25,-1007.75,-436.25,5
-112.0,-5.0,438.75,-264.25,-236.75,-622.0,-1000.0,-494.25,5
-203.5,44.5,288.75,-351.5,-580.25,-972.25,-999.75,-548.75,5
-188.75,53.0,-17.75,-298.5,444.0,-1056.5,-1006.75,-239.0,5
-212.25,38.5,-308.75,-247.25,855.75,-1240.5,-995.75,-186.0,5
-185.75,190.0,-767.5,-284.25,532.0,-1232.75,-958.25,129.75,5
-167.75,456.75,-1149.0,-468.75,273.5,-1451.0,-857.25,436.75,5
-318.5,692.5,-1051.75,-490.75,-21.5,-1362.5,-431.75,581.25,5
-627.5,506.25,-861.0,-424.75,-138.25,-1030.5,-153.5,802.0,5
-699.75,63.25,-726.25,-351.75,-789.25,-758.75,23.25,1009.5,5
-615.25,-88.5,-338.75,-186.0,-1523.75,-472.75,126.25,625.25,5
-543.5,-126.5,-257.0,-18.25,-1755.0,-479.0,252.0,179.25,5
-303.0,-112.5,-283.25,24.5,-1430.25,-488.5,192.5,-226.75,5
27.25,-145.0,-243.5,8.75,-899.5,-443.75,-230.25,-575.5,5
236.75,-191.0,-44.25,78.5,-390.75,-411.75,-839.25,-1106.25,5
382.25,-158.5,363.5,193.5,235.0,-223.75,-1428.0,-1889.5,5
510.5,-203.25,525.25,210.0,683.5,-104.0,-1808.5,-2450.5,5
638.25,-159.5,914.75,147.75,802.75,-70.0,-1661.25,-2703.0,5
744.0,-131.0,1233.25,108.25,931.75,-144.0,-1508.5,-2678.25,5
744.75,-124.5,1083.75,55.5,1189.25,-170.5,-1360.5,-1743.25,5
662.75,-114.5,584.0,-15.75,1547.5,-139.0,-1020.25,-333.25,5
602.75,-134.5,201.5,58.0,1786.0,-149.5,-535.5,-200.5,5
702.75,-187.5,-74.0,149.75,1948.0,-86.75,-73.0,-19.25,5
783.5,-503.5,-229.75,113.75,2191.5,134.5,251.0,-80.5,5
572.5,-716.25,-11.5,28.0,2147.25,195.25,254.25,-485.5,5
475.75,-573.5,554.5,546.0,2133.0,188.75,153.25,-681.25,5
716.0,-356.0,792.25,702.75,2098.5,133.0,362.25,-759.5,5
556.0,-370.25,960.25,658.75,2050.25,-36.0,605.0,-882.25,5
352.75,-249.0,1388.25,805.5,1995.75,-306.5,818.5,-1318.0,5
377.0,-209.75,1298.0,624.25,1896.5,-438.0,749.75,-1275.0,5
209.75,-93.25,1128.0,523.0,1817.0,-424.5,303.25,-1044.0,5
308.5,13.75,762.75,451.0,1719.75,-85.25,-84.5,-698.75,5
193.0,59.0,-38.0,221.75,1684.5,402.0,-218.25,-402.0,5
130.0,99.75,-618.0,121.25,1642.25,914.5,281.25,21.25,5
274.75,130.25,-969.75,-60.25,1549.5,1453.0,1016.0,213.5,5
150.25,168.25,-1131.75,-79.5,1535.75,1945.25,1022.0,484.75,5
-228.0,165.75,-1210.5,-113.25,1544.5,2042.25,1028.25,723.0,5
-612.75,144.0,-808.75,-32.75,1549.75,2079.0,1033.25,640.0,5
-910.25,92.25,-287.75,16.75,1609.75,2058.75,1038.25,602.75,5
-1045.25,102.25,-128.0,30.5,1635.5,2060.75,1042.75,766.75,5
-1112.5,127.75,-105.25,-46.25,1593.25,2065.5,1042.25,937.25,5
-1113.5,171.25,-169.75,5.5,1366.0,2075.5,1041.5,813.75,5
-913.75,178.5,-421.75,230.25,1208.25,2116.5,1051.0,929.5,5
-769.75,165.5,-565.5,173.0,1004.0,2136.25,1147.75,679.75,5
-548.5,169.5,-582.25,-98.75,725.5,2129.25,1016.5,200.75,5
-134.75,180.75,-307.0,-228.0,110.0,2094.5,736.75,-104.25,5
341.75,209.5,-92.0,-220.25,-828.0,2132.5,537.75,-145.0,5
596.75,191.0,44.75,-172.0,-1820.25,2165.75,250.75,-324.0,5
743.5,170.5,127.0,-116.75,-2012.75,2172.0,-239.0,-289.0,5
687.0,147.75,95.5,-131.75,-2018.75,2197.5,-1736.0,320.25,5
249.25,114.25,31.0,-150.25,-1689.75,2306.75,-2096.25,882.5,5
-76.0,71.25,-128.0,-230.25,-1139.5,2339.75,-2394.25,768.0,5
-300.25,49.0,-174.25,-285.75,-459.75,2088.25,-2440.5,1179.0,5
-523.25,41.0,-70.25,-205.0,-56.75,1784.25,-2123.5,1233.0,5
-611.75,68.25,197.25,-156.25,-146.25,1552.75,-1810.25,1105.5,5
-557.5,76.25,311.0,-170.5,-236.0,1388.5,-1612.0,945.25,5
-510.25,54.0,261.0,-126.25,-208.75,1243.5,-1480.25,1122.75,5
-412.25,62.75,273.25,-85.75,-168.5,1273.25,-1437.0,1573.25,5
-338.5,78.0,161.25,-148.0,-143.75,1205.75,-1503.25,1683.5,5
-295.5,101.0,216.0,-153.5,-48.25,899.25,-1666.0,1680.25,5
-102.5,70.75,79.75,-104.0,75.25,730.5,-1770.75,1623.0,5
69.75,20.25,-167.5,-88.75,115.25,681.5,-1733.5,1372.75,5
228.75,21.75,-149.0,-88.0,117.75,533.0,-1787.0,1345.5,5
306.75,32.25,-372.0,-78.75,133.5,461.0,-1882.75,1330.0,5
190.75,29.25,-570.75,-12.5,132.75,174.5,-1938.0,1357.0,5
95.5,-7.25,-475.75,83.0,66.0,-139.25,-1602.0,1475.5,5
37.25,-44.75,-333.5,156.0,-71.5,-333.75,-547.0,1468.5,5
45.25,-48.25,11.0,165.0,-16.25,-649.25,-309.0,1568.0,5
149.25,-35.25,615.5,121.0,638.75,-1390.25,-297.25,1588.0,5
51.75,-52.0,799.75,-88.0,1361.75,-2133.0,-210.0,1409.0,5
-57.0,-74.5,714.0,-416.75,934.0,-1989.25,-70.5,1213.5,5
-134.75,-41.75,727.5,-505.25,-297.0,-1824.0,114.25,949.0,5
-153.0,-35.5,542.75,-417.25,-121.75,-1851.25,300.25,539.0,5
-88.25,-25.5,231.75,-415.25,2047.5,-1673.25,493.0,86.75,5
-31.5,3.5,-19.0,-492.25,2099.75,-1778.25,713.0,-335.25,5
181.0,42.25,-83.25,-434.25,1885.25,-1644.25,899.75,-617.0,5
218.75,71.5,-149.0,-251.0,1923.0,-1390.0,481.75,-667.75,5
-5.25,50.75,-191.0,-157.75,448.75,-1286.25,532.75,-526.75,5
-216.75,9.75,-215.25,-26.0,1222.75,-1106.5,790.75,-448.5,5
-349.0,-24.25,-312.75,97.5,2276.0,-934.25,781.75,-397.75,5
-285.75,-48.5,-388.75,195.5,2296.25,-576.25,656.5,-421.75,5
-194.0,-36.0,-544.0,154.75,2287.75,-240.0,338.5,-448.75,5
-165.0,-13.75,-770.0,32.75,2227.5,215.25,42.25,-365.75,5
-143.25,-17.5,-837.25,77.25,434.75,785.75,-110.25,-206.5,5
-93.75,-12.0,-606.5,164.5,366.5,1129.25,-77.25,6.25,5
-40.25,-23.5,-467.25,209.75,352.5,1181.0,-32.0,-118.25,5
76.25,-2.25,-301.5,284.25,365.0,1152.25,75.75,-201.25,5
264.75,-13.75,-243.5,358.75,332.5,1162.25,188.5,-27.75,5
344.0,-33.0,-313.0,225.25,254.5,1106.5,84.75,124.5,5
246.5,-13.75,-235.75,109.0,202.75,1023.5,-23.75,80.75,5
153.25,-30.25,-297.0,74.5,186.0,974.5,-2.5,-15.25,5
152.0,-22.5,-189.75,54.25,218.0,1010.75,93.25,-150.75,5
181.0,-36.25,-104.25,73.5,226.75,990.5,170.0,-434.0,5
115.75,-70.25,-109.25,42.25,166.75,900.75,202.25,-474.0,5
-16.25,-80.0,-39.75,78.25,136.75,732.5,238.0,-436.0,5
-143.75,-73.0,71.5,98.75,83.75,585.25,315.0,-480.75,5
-306.25,-69.75,239.75,99.25,30.25,251.0,397.75,-434.75,5
-286.5,-60.75,243.5,70.75,6.5,-689.25,393.0,-514.5,5
-89.25,-40.5,134.5,26.0,-6.25,-1492.25,300.75,-610.75,5
102.75,-25.5,-0.5,-33.25,9.0,-2013.0,87.5,-628.0,5
122.75,-14.25,-24.25,-172.25,-569.5,-2147.75,-229.5,-679.5,5
-47.75,-50.0,35.75,-185.75,-1039.25,-2243.0,-614.5,-1009.75,5
-101.0,-74.75,69.5,-145.75,-1529.5,-2285.5,-1028.25,-1429.25,5
-9.75,-70.0,-33.5,-112.5,-1952.25,-2277.75,-1419.5,-1298.75,5
42.75,-103.5,-207.5,-41.0,-1985.0,-2179.25,-1614.5,-852.25,5
87.0,-80.5,-212.0,-22.75,-1955.5,-1949.5,-1627.25,-652.25,5
218.5,-23.75,-87.0,0.0,-1912.0,-1785.5,-1643.25,-595.5,5
149.5,-11.0,-20.25,42.25,-1883.5,-1848.75,-1669.25,-828.5,5
4.25,8.25,42.75,96.75,-1901.25,-1949.25,-1467.0,-1192.75,5
-80.0,29.0,113.0,135.25,-1913.0,-2040.5,-1278.0,-978.25,5
-157.75,72.25,196.75,87.5,-1853.75,-2037.5,-1125.25,-789.5,5
-111.5,122.0,261.0,-67.0,-1783.25,-2005.0,-955.5,-651.25,5
-5.5,158.0,230.5,-140.25,-1788.5,-2097.0,-813.25,-522.25,5
171.5,173.0,367.75,-58.75,-1986.75,-2186.5,-704.75,-598.5,5
132.0,178.75,464.5,-28.5,-2001.0,-1790.5,-629.75,-327.25,5
72.5,183.25,417.75,32.0,-2077.75,-764.75,-553.0,-245.25,5
115.25,168.0,344.75,31.75,-2143.0,106.5,-517.0,-183.75,5
93.0,150.75,164.0,28.5,-2216.25,723.25,-200.25,-76.0,5
76.25,150.25,-2.0,97.5,-2286.75,967.5,185.75,-314.5,5
56.5,149.75,-152.25,115.0,-2300.25,983.75,450.0,-342.5,5
121.0,126.5,-216.25,181.5,-1361.0,936.0,764.5,-56.0,5
104.5,98.0,-273.75,232.75,-508.5,994.5,1144.0,10.0,5
23.5,89.0,-280.0,211.5,-474.0,1085.0,1361.0,-35.25,5
-31.5,90.75,-213.25,101.25,-407.5,1237.5,1557.5,198.0,5
-48.5,98.0,-261.5,53.0,-357.75,1400.0,1687.75,216.0,5
98.25,100.25,-236.75,43.5,-277.5,1702.0,1901.25,302.5,5
256.0,91.0,-213.0,-17.5,-118.75,1913.25,2122.0,699.0,5
324.5,62.25,-163.5,-61.5,20.0,1906.0,2122.5,847.0,5
260.25,65.5,-87.5,-101.0,-964.75,1760.25,2119.75,777.75,5
220.75,71.0,-70.25,-83.0,-1851.25,1635.0,2136.5,930.0,5
186.25,62.0,-12.0,-25.25,210.0,1578.5,2133.5,1030.25,5
-93.5,72.25,-21.0,4.75,294.5,1497.5,2096.75,966.5,5
-573.0,68.5,20.75,-29.25,393.0,1493.25,2041.25,900.5,5
-873.25,49.75,87.75,-121.25,532.25,1392.75,1813.25,837.0,5
-899.5,28.75,29.0,-138.25,642.5,1259.75,1168.25,896.0,5
-842.5,25.75,37.0,-97.75,707.25,1317.75,272.25,1070.75,5
-609.0,14.5,91.5,-94.75,720.25,1436.0,270.75,1274.0,5
-377.75,0.75,94.5,-132.0,1143.25,1395.75,385.0,1189.0,5
-151.25,-7.75,109.25,-181.25,2121.25,1302.0,117.0,916.0,5
35.5,-25.25,115.5,-159.25,2179.5,1223.75,81.0,659.75,5
104.0,-48.5,103.25,-150.5,2115.75,1030.5,82.75,708.25,5
92.75,-76.0,83.0,-167.0,2056.5,828.25,91.75,744.25,5
106.5,-93.5,15.25,-166.75,2138.25,367.5,128.25,433.75,5
109.25,-108.75,29.75,-92.75,2315.0,160.0,131.75,359.0,5
131.0,-108.5,68.5,-13.0,2455.25,155.25,102.75,544.25,5
132.5,-113.0,31.25,45.0,2443.75,14.25,149.25,700.5,5
84.25,-101.25,-23.25,71.75,2330.5,-100.0,95.75,769.75,5
138.75,-75.75,-37.0,54.75,2177.25,-337.0,97.0,886.25,5
177.5,-61.25,-23.5,57.5,1987.75,-611.0,180.25,1046.5,5
206.5,-49.75,-37.75,0.0,1519.75,-745.0,2204.25,1062.0,5
199.5,-38.75,-45.5,4.75,1042.5,-659.0,2167.0,1013.5,5
233.5,-29.25,-33.5,17.25,946.5,-543.25,2147.5,977.25,5
181.5,-38.75,26.75,51.75,468.5,-646.75,2199.75,895.25,5
61.5,-25.5,53.5,68.75,246.5,-745.5,2198.5,792.0,5
37.0,-32.75,71.75,33.75,221.25,-605.25,2160.0,638.0,5
54.5,-40.25,66.75,37.75,1007.0,-245.5,2140.5,471.75,5
127.75,-48.0,16.0,54.25,1006.75,2.5,2159.0,368.0,5
98.75,-53.5,-6.75,54.25,-394.75,159.25,2172.75,273.25,5
121.0,-46.25,-22.0,-0.5,74.75,417.5,2106.5,172.75,5
153.75,-40.0,-11.75,-74.5,183.75,603.75,1810.75,20.25,5
117.25,-6.5,-2.5,-148.25,-133.5,776.0,1526.25,-168.25,5
68.5,-18.75,24.25,-161.5,-226.0,854.5,1232.25,-316.25,5
34.0,-36.75,96.25,-101.25,-461.25,800.75,890.5,-435.0,5
-0.75,-35.25,160.25,0.5,-199.0,787.25,588.5,-517.0,5
-91.5,-38.75,176.5,44.75,-601.75,799.5,435.75,-387.5,5
-143.25,-56.5,176.0,55.75,-1020.25,705.5,261.5,-302.5,5
-189.5,-66.5,179.5,60.75,-1595.75,609.0,247.0,-265.75,5
-178.75,-66.25,117.5,40.75,-1911.75,638.5,172.5,-242.5,5
-152.0,-64.5,46.5,33.75,-2307.75,680.0,-191.5,-228.75,5
-145.75,-34.25,-19.75,23.5,-2862.5,699.25,-826.0,-192.5,5
-145.75,-43.0,-27.75,1.0,-2671.25,709.5,-1231.5,-131.25,5
-161.5,-256.75,-19.25,-195.0,-3012.75,549.5,-1200.25,419.0,5
118.75,-745.75,-148.75,-727.5,-3425.25,210.25,-1307.25,419.75,5
492.25,-694.0,-335.5,-808.75,-3286.5,171.75,-1388.25,287.75,5
446.25,-288.5,-367.0,-679.0,-2946.5,109.25,-1404.25,357.25,5
374.5,-69.0,-287.0,-702.5,-2786.25,-81.0,-1469.5,162.25,5
494.0,235.75,-185.5,-458.5,-2449.75,-36.75,-1744.0,-22.25,5
457.25,385.5,-42.25,-214.5,-2252.0,112.0,-1786.25,-172.25,5
561.75,491.75,-49.75,-164.25,-2078.5,396.0,-1900.25,-374.0,5
547.0,580.5,-120.0,-36.25,-1961.5,521.25,-1905.0,-242.0,5
455.75,528.5,-120.0,-22.0,-1926.0,453.75,-2046.5,-198.25,5
313.5,472.25,-154.0,79.25,-1917.75,332.5,-2163.0,-414.25,5
162.75,351.25,-130.0,119.75,-2014.5,29.5,-2233.25,-357.25,5
28.25,326.75,-40.75,219.5,-1887.5,-423.75,-2317.75,-427.75,5
-102.75,222.75,43.0,274.5,-1804.5,-678.75,-2405.25,-632.75,5
-154.75,137.75,117.5,325.5,-1612.0,-515.75,-2380.75,-435.75,5
-360.5,44.0,123.5,328.5,-1517.25,-416.75,-2107.25,-503.0,5
-515.75,-48.25,135.5,295.0,-1494.25,-255.0,-1886.25,-582.75,5
-565.0,-98.25,154.25,282.25,-1617.75,-373.0,-1647.75,-779.75,5
-587.0,-87.0,151.0,221.0,-1638.25,-388.0,-1558.5,-967.5,5
-664.25,-62.0,170.25,197.5,-1731.5,-207.75,-1342.75,-787.5,5
-602.25,-85.0,156.25,166.5,-2081.75,-185.0,-770.25,-409.5,5
-443.25,-57.25,196.5,189.25,-2363.25,-52.75,-208.25,-182.5,5
-269.5,-50.0,234.75,257.0,-2333.5,-11.75,271.0,-22.0,5
-47.0,-60.5,167.5,296.5,-1869.5,-72.0,314.0,344.0,5
142.25,-71.0,101.25,260.0,-1374.25,-309.75,320.0,429.5,5
251.5,-35.25,89.0,224.75,-646.75,-456.0,272.75,451.0,5
209.5,-39.5,108.0,178.25,565.25,-596.0,234.25,510.25,5
132.5,-89.0,145.0,136.75,1939.0,-748.5,42.5,611.5,5
301.75,-111.75,171.0,92.5,2256.0,-876.5,-78.0,595.75,5
418.0,-137.25,149.0,86.0,1890.75,-989.5,-172.25,443.25,5
-10.75,-143.5,102.25,120.5,1513.75,-1180.25,-290.75,221.5,5
-285.25,-128.75,46.5,93.5,1600.5,-1531.25,-387.0,-119.0,5
-209.5,-123.25,15.75,59.5,1381.75,-1606.25,-486.75,-354.25,5
-275.0,-118.75,-11.75,91.25,1919.5,-1539.75,-513.5,-586.25,5
-402.75,-87.0,17.25,208.0,2753.25,-1360.75,-497.75,-914.75,5
-430.5,-65.0,209.25,267.25,3088.75,-1278.5,-388.5,-1264.0,5
-492.0,-67.0,281.25,214.25,3203.0,-1365.25,-320.5,-1316.25,5
-547.5,-144.5,38.0,88.5,3401.0,-1055.75,-279.25,-1117.0,5
-31.25,-148.75,-316.75,-8.5,3399.0,-707.0,-191.0,-1244.25,5
486.0,147.0,-403.75,167.75,3177.5,-303.25,-149.75,-1782.75,5
-251.75,629.75,150.75,500.25,2897.0,124.0,-139.25,-1815.5,5
-790.25,740.5,475.5,387.75,2116.25,120.0,179.5,-1652.25,5
-532.25,492.75,6.0,128.0,1133.75,-95.5,249.0,-1510.25,5
148.25,400.25,-123.25,-63.25,262.5,167.5,-12.5,-1060.75,5
786.75,189.25,-352.0,-538.25,-48.5,186.75,35.5,-561.5,5
1039.0,-99.0,-636.5,-1016.25,-340.25,-1.5,-50.25,-491.0,5
134.25,-420.0,-320.25,-1136.0,-543.0,324.0,-202.25,-802.5,5
-956.0,-475.5,156.25,-777.5,-789.5,683.25,-347.75,-983.5,5
-1698.5,-333.5,418.0,-508.25,-1257.25,733.25,-578.75,-844.5,5
-1148.5,-469.25,233.75,-423.0,-662.0,898.25,-744.75,-937.0,5
-749.25,-378.25,111.5,-375.25,-452.5,667.25,-788.75,-985.25,5
169.25,-293.25,-0.5,-409.0,-403.5,397.25,-1068.25,-1276.5,5
1104.75,-273.75,-121.5,-279.25,65.75,77.25,-1795.75,-1285.25,5
1410.75,-158.5,-105.5,-152.5,393.25,-248.5,-1822.0,-1242.75,5
1262.75,-44.5,-64.0,-39.5,834.75,-20.25,-1375.5,-1506.75,5
1252.75,145.25,-135.5,116.75,722.5,-659.75,-890.25,-1938.0,5
876.5,263.5,-51.75,391.75,909.25,-858.25,-618.75,-1739.5,5
-173.5,303.75,520.5,706.0,681.5,28.0,-325.25,-1398.5,5
-612.75,285.5,782.5,709.0,465.75,498.5,32.75,-1062.75,5
-525.5,269.0,610.0,575.75,1976.25,265.25,343.5,-573.25,5
-438.0,203.75,396.5,537.0,2036.25,81.5,552.5,-288.25,5
-336.5,115.75,195.75,383.25,1841.0,-484.75,679.0,-92.5,5
-362.75,86.0,129.0,328.75,1600.75,-774.5,716.25,141.75,5
-501.25,85.0,55.5,148.25,1364.75,-409.25,555.5,377.75,5
-337.25,46.25,5.0,20.75,1956.0,49.0,429.5,538.0,5
-815.5,19.25,69.75,220.0,2191.25,487.25,339.25,712.0,5
-1063.0,14.75,81.0,152.25,1733.0,639.75,415.5,963.5,5
-801.0,18.75,12.5,38.75,1508.25,1308.0,645.25,1211.0,5
-468.5,43.5,-85.25,-27.5,1571.0,1711.5,726.5,1283.0,5
-67.75,19.75,-136.5,-66.25,681.5,1561.75,604.25,1581.5,5
874.25,4.25,-185.25,-499.5,-135.0,887.75,772.0,1880.0,5
1316.75,-32.25,273.75,-398.5,685.25,870.25,907.5,1206.25,5
813.0,-35.0,722.75,-62.5,778.0,1084.25,807.25,1163.0,5
1203.75,-26.25,-195.25,-474.75,-503.25,578.25,653.0,1447.25,5
1407.5,-49.25,-865.25,-524.5,-1114.0,170.25,466.5,1394.25,5
1384.0,-9.25,-938.0,-655.0,-2035.25,-363.0,298.75,1567.0,5
663.75,-229.0,-929.0,-943.25,-2981.0,-597.5,346.0,1348.0,5
-668.0,-514.25,-188.0,-884.0,-2481.75,-1082.25,945.75,1099.75,5
-874.25,-421.75,-106.0,-653.75,-519.0,-1545.5,1835.0,804.75,5
-748.25,-293.0,-576.75,-541.0,101.75,-1811.5,2145.5,404.75,5
-744.75,-165.75,-643.0,-270.0,314.25,-1602.25,2219.75,80.75,5
-678.75,-82.75,-674.5,-88.25,-100.0,-1081.0,2181.25,-56.5,5
-784.75,-221.0,-432.5,3.25,361.5,-883.25,2183.25,-74.25,5
-705.25,-207.25,-331.5,114.5,1115.75,-896.75,2008.25,-190.75,5
-347.75,-174.5,-608.25,170.0,2166.5,-771.25,1174.25,-532.25,5
-159.0,-66.5,-502.5,527.5,-245.25,-469.0,448.5,-1323.5,5
-611.25,-20.75,238.25,880.25,-338.5,-241.25,-231.0,-1399.0,5
-526.75,-86.0,755.25,755.0,-574.5,-444.0,-391.5,-963.75,5
-326.25,-2.0,539.0,387.0,-1483.5,228.0,-474.0,-724.5,5
-303.5,-9.5,496.25,478.0,-1715.25,1024.0,-334.0,-658.5,5
-333.75,66.0,531.25,468.5,-2192.5,1110.75,346.25,-390.0,5
37.0,148.75,297.0,187.0,-3089.5,927.75,394.5,162.5,5
718.75,165.0,76.5,-137.75,-2739.0,542.25,330.0,339.0,5
1344.5,79.0,-99.5,-483.5,-2482.25,345.0,433.25,292.25,5
1418.0,-8.0,121.0,-194.5,-1182.0,810.5,-39.5,-249.0,5
570.0,121.5,548.75,350.5,896.5,1312.0,-793.25,-520.5,5
-272.5,161.75,725.25,565.5,895.25,1091.5,-1083.75,-106.0,5
-616.75,153.25,528.25,294.0,-170.25,628.5,-895.75,574.0,5
-544.75,144.75,336.0,215.5,-827.0,506.5,-961.5,695.75,5
-662.0,100.25,257.75,327.5,-882.75,320.25,-986.0,912.25,5
-194.25,180.0,-122.5,186.0,787.5,322.5,-1024.0,1061.75,5
247.25,217.5,-322.5,140.75,558.5,571.75,-1049.5,1216.5,5
470.0,149.0,-259.0,127.0,749.75,645.0,-1059.75,975.25,5
5.75,64.0,-268.5,72.25,359.5,355.75,-1076.75,1169.25,5
-486.5,-12.0,-187.25,-63.75,343.25,693.0,-1086.5,1244.0,5
-623.5,-43.25,-37.0,-76.25,653.25,1015.25,-923.5,1240.25,5
-396.75,-65.0,44.0,-28.25,703.25,1064.5,-611.75,1299.5,5
445.5,-57.5,-191.5,-185.25,415.25,810.75,-475.0,1521.75,5
506.5,-114.5,-337.0,-208.5,583.0,752.5,-749.75,988.75,5
-353.5,-178.5,-204.25,18.5,1291.5,490.0,-981.5,744.75,5
-738.75,-109.0,-73.75,-57.25,736.75,476.25,-1040.75,1271.75,5
-628.5,-99.0,189.75,-123.75,801.75,444.25,-998.5,845.0,5
-592.0,-136.75,269.75,-79.5,702.5,772.75,-1011.5,890.75,5
-644.25,-133.75,97.5,-119.25,180.75,845.25,-1162.25,1081.25,5
-576.75,-113.75,-19.5,-93.5,-498.5,455.75,-1249.25,1200.0,5
-223.0,14.25,-56.0,-139.25,-1421.25,7.75,-1010.5,1372.0,5
117.25,43.5,45.25,-1.75,-1759.0,-373.5,-471.25,1176.0,5
276.0,38.0,94.75,92.5,-3445.75,-369.0,-51.75,1127.0,5
218.75,117.0,15.75,-6.25,-3455.25,-282.5,151.75,412.0,5
193.25,124.75,-23.25,-121.5,-3360.5,-287.0,526.0,59.5,5
154.25,103.25,-61.75,-196.0,-3388.0,-372.0,619.25,94.75,5
195.0,93.75,-149.0,-218.25,-2922.5,-420.25,714.75,152.0,5
193.0,73.0,-206.25,-278.75,-2535.0,-527.0,1250.25,383.75,5
403.25,93.5,-306.5,-490.75,-2251.5,-788.0,2153.5,810.0,5
1208.5,255.75,-520.75,-756.75,-1616.5,-951.25,2721.0,792.75,5
1536.0,190.5,-276.25,-147.75,-257.75,-18.5,2318.5,75.75,5
642.0,-169.5,303.5,578.5,0.0,459.25,2390.0,664.25,5
89.0,-56.25,189.25,-38.0,-734.75,-82.0,2630.0,1759.0,5
180.75,70.5,167.5,-44.5,-323.25,677.5,2074.75,1161.25,5
-732.25,-162.0,423.0,454.75,-63.75,1288.5,2191.5,1189.5,5
-785.25,-21.0,315.25,121.0,-794.25,1373.0,2755.75,1438.25,5
-552.25,14.75,417.25,184.0,-580.25,1894.25,2767.75,1157.25,5
-728.5,19.0,347.25,95.0,-828.75,1778.5,2311.25,1390.75,5
-501.25,117.5,444.25,33.75,-950.25,1401.5,1174.75,1350.0,5
-544.25,99.0,587.25,50.0,-671.75,943.5,904.75,1354.5,5
-369.75,148.75,441.0,-108.75,-434.5,507.0,846.25,1219.25,5
-386.25,139.0,301.25,-106.5,356.75,356.0,878.75,1162.25,5
-137.0,135.25,-215.0,-207.5,927.5,597.25,889.5,-99.0,5
212.5,63.25,-641.25,-143.25,1513.0,773.75,859.25,-1234.5,5
361.0,-20.0,-712.25,-62.25,2535.0,879.25,830.75,-1564.75,5
278.75,-95.5,-428.25,70.0,2751.25,1003.5,451.0,-1682.0,5
-80.75,-64.5,-274.0,-46.75,1556.75,1036.5,240.75,-1552.5,5
-23.5,-16.75,-557.5,-129.0,1455.25,981.0,79.0,-1228.5,5
23.25,-21.0,-574.5,-48.75,1861.25,776.5,89.5,-614.75,5
104.0,9.25,-361.75,-91.5,1744.75,950.5,202.25,-535.75,5
209.5,3.5,-295.75,-52.0,2183.75,1240.0,379.25,-982.75,5
325.75,1.25,-295.25,-42.0,3034.0,1102.75,477.5,-1441.0,5
347.25,-9.5,-337.25,-71.75,2541.0,452.25,485.25,-1658.0,5
401.0,-4.75,-327.5,-65.25,2276.25,314.0,380.5,-1722.25,5
560.75,-27.0,267.25,-27.75,2046.25,261.5,199.25,-1487.75,5
544.5,-33.5,849.25,-80.5,1693.0,106.5,173.75,-937.75,5
485.5,-48.0,853.0,-75.5,1451.75,-14.25,301.25,-324.75,5
421.5,-24.0,676.0,-136.75,720.75,-437.25,462.5,126.0,5
421.75,-30.25,-870.25,-113.5,1333.25,-928.5,421.0,-80.5,5
316.25,-115.0,-1038.25,35.0,1803.5,-1342.75,539.5,-81.75,5
134.25,-87.25,-971.5,-44.0,1052.25,-1343.25,856.5,-7.75,5
-0.25,-43.25,-992.25,-129.0,916.0,-1270.5,1121.5,-129.75,5
-123.0,-44.25,-790.25,-117.5,685.0,-1387.25,1228.75,-193.75,5
-147.5,-18.0,-464.75,-113.75,679.75,-1567.5,1227.25,-237.75,5
-140.0,-14.0,-201.0,-113.75,969.5,-1670.25,1369.5,-230.25,5
-138.5,-6.75,-44.0,-164.5,716.0,-1678.5,1572.75,-203.75,5
-84.25,22.0,49.0,-228.25,417.5,-1541.25,1771.25,-12.5,5
35.25,64.0,78.0,-279.0,130.0,-1416.5,1752.5,134.75,5
190.5,4.25,240.5,-169.75,918.5,-1254.0,1513.75,-61.25,5
74.75,-64.5,233.75,-33.0,471.75,-1390.25,1561.5,-242.0,5
-116.0,-48.75,-98.5,-30.5,-42.25,-1519.75,1954.75,-478.0,5
-69.75,-82.25,-133.75,17.5,-783.75,-554.0,2232.75,-1009.75,5
-46.5,-93.25,-98.25,46.5,-2170.25,-129.0,2326.75,-1024.5,5
-39.25,-107.75,57.5,50.25,-238.5,-350.75,2396.25,-851.75,5
30.25,-94.75,133.0,11.75,-560.25,-434.25,2473.5,-739.25,5
63.5,-70.25,103.5,-36.0,-602.25,-427.5,1935.0,-573.0,5
121.0,-46.5,161.5,-96.25,-624.25,-366.0,922.25,-464.75,5
202.75,-55.5,204.75,-68.0,-53.25,-170.75,321.75,-461.75,5
207.25,-55.5,308.0,-33.75,-264.25,-80.25,265.75,-317.5,5
126.0,30.25,287.75,-59.25,-565.75,-36.0,258.0,-233.75,5
93.75,40.5,290.5,-32.25,-383.0,-12.5,-26.25,-194.75,5
-6.75,34.25,209.5,-53.75,-746.75,-627.0,-223.5,-133.0,5
-88.75,-6.0,215.5,-57.5,-570.75,-2042.0,-224.0,1103.75,5
-57.75,-20.0,222.5,-53.75,-624.5,-2068.0,-211.0,1935.5,5
-16.25,22.5,80.0,-61.0,1120.25,-110.5,-340.0,2013.5,5
235.25,20.25,-28.0,-46.25,1465.0,-45.5,-651.0,1918.75,5
444.0,-27.5,-63.5,70.25,2130.0,50.5,-731.0,1825.0,5
338.25,-57.25,-20.75,108.75,1803.5,-27.25,-807.75,1215.75,5
311.0,-41.0,-62.75,42.25,1713.5,-46.75,-763.0,78.75,5
193.75,-27.0,-25.0,9.25,1498.5,-57.0,-939.5,234.75,5
-85.0,63.25,-95.75,-102.0,-860.75,1761.25,-1412.5,334.5,5
-149.75,64.0,6.25,-98.25,-1625.5,2109.5,-1826.75,104.5,5
-190.5,-8.75,527.0,-25.5,-2408.0,2163.0,-1892.5,175.5,5
-307.0,2.5,1021.75,-95.5,-2896.5,2150.0,-1911.75,497.75,5
-421.5,30.75,1096.5,-160.75,-3051.0,2057.75,-1951.75,373.0,5
-407.0,59.5,790.0,-174.25,-3168.25,1363.0,-1942.75,1003.75,5
-363.25,99.25,383.5,-83.5,-3213.25,8.5,-1894.5,1803.75,5
-264.0,139.25,2.75,85.5,-3377.75,-543.0,-1874.75,1969.0,5
-117.0,123.75,-408.25,227.0,-3162.75,-556.0,-1878.5,1709.0,5
-80.25,66.25,-591.25,307.25,-1039.0,-415.0,-1868.0,1578.75,5
20.5,91.25,-734.75,326.25,-1153.5,-757.5,-1826.5,1500.5,5
131.5,114.75,-802.0,285.0,-1083.75,-1059.0,-1793.75,1385.0,5
236.0,97.25,-812.75,233.5,-1062.0,-1192.75,-1770.75,1185.0,5
304.5,106.75,-896.0,218.25,-917.25,-1263.25,-1735.25,879.0,5
312.25,67.25,-732.75,215.75,-867.0,-1843.0,226.0,523.25,5
279.5,15.25,-571.0,259.0,-1007.0,-1879.5,293.5,126.0,5
140.25,-62.75,-204.5,216.0,-707.25,-1876.25,295.75,-210.75,5
89.0,-145.5,319.5,72.25,-423.75,-1861.0,345.75,-652.0,5
299.25,-149.5,462.75,-90.75,-185.75,-1838.5,356.0,-1213.0,5
303.5,-147.25,224.25,-256.25,177.75,-1539.25,322.25,-1713.5,5
115.25,-173.5,-20.75,-297.75,352.75,-483.0,304.25,-2148.5,5
64.5,-165.75,-142.75,-242.75,609.5,390.75,174.5,-2198.0,5
15.0,-122.0,-218.0,-178.0,951.5,1841.75,118.5,-2313.25,5
-119.0,-78.25,-98.5,-147.25,1117.0,2126.75,69.5,-2410.75,5
-263.0,-46.0,-138.5,-115.25,1110.0,2134.25,-467.5,-2436.75,5
-333.75,-11.75,-185.0,-88.25,1189.5,2085.25,-1071.75,-2436.0,5
-280.5,21.25,-56.75,-49.75,1263.25,2063.0,-1326.75,-390.25,5
-148.0,39.75,88.5,-66.0,1188.5,2064.25,-1416.25,-316.75,5
-43.75,67.75,212.25,-160.75,1207.75,2049.5,-1496.75,-335.75,5
177.0,72.75,265.5,-129.75,1319.75,2072.0,-1445.0,-432.0,5
144.25,43.75,403.5,-43.25,366.75,2073.0,-1504.0,-482.75,5
-105.0,35.75,515.75,51.0,1223.5,2048.0,-1589.5,-471.0,5
-205.75,3.75,559.0,96.75,1303.25,2043.5,-1538.0,-464.25,5
-313.0,-31.75,652.75,-12.5,1277.0,2044.5,-1432.5,-453.5,5
-273.0,0.5,373.25,-144.25,1046.0,2023.25,-1185.5,-381.75,5
-168.0,96.0,-79.0,-305.0,744.25,2019.5,-962.25,-300.75,5
207.25,73.5,-276.25,-335.5,1360.0,2223.0,-828.75,-129.25,5
618.25,-30.25,-493.75,-177.25,1441.75,2345.25,-717.25,93.0,5
395.75,43.75,-514.5,-78.5,1093.75,2336.5,-629.0,442.25,5
293.5,177.25,-584.75,52.5,1106.0,2393.0,-552.0,691.25,5
337.75,193.5,-579.75,130.0,903.25,2388.0,-496.25,872.0,5
365.5,48.5,-436.5,130.75,905.25,2266.5,-413.5,978.0,5
390.5,2.75,-264.5,133.5,784.0,2080.25,-245.0,1105.0,5
117.5,-11.0,6.25,96.5,667.5,1681.0,29.5,1198.25,5
37.75,-68.75,124.5,85.75,210.5,1479.0,207.75,1291.0,5
-127.25,-85.25,323.0,81.5,-593.5,1562.25,241.0,747.75,5
-369.75,-111.0,395.5,59.25,-1076.25,1705.25,68.75,315.5,5
-440.75,-44.75,309.0,-4.25,-1200.75,1589.0,261.0,1.0,5
-410.0,-31.0,157.75,-82.25,-352.5,1488.75,679.75,-294.0,5
-283.25,-6.0,-33.5,-76.75,43.25,1478.25,1001.0,-438.5,5
-182.5,-6.0,-173.75,91.5,424.25,1498.75,1086.0,-579.25,5
73.75,-23.0,-274.0,189.25,480.0,1431.0,1225.75,-401.0,5
147.25,-2.25,1.0,178.75,378.25,1025.25,1305.75,-79.75,5
23.0,76.0,636.75,96.75,526.0,566.0,1362.25,105.0,5
-84.0,190.75,929.25,-30.0,639.75,235.0,1471.5,206.0,5
-212.25,114.25,915.75,-63.0,824.25,-50.75,1609.75,273.25,5
-336.25,89.5,891.75,-154.5,978.25,-347.5,1814.0,258.25,5
-477.5,90.75,850.0,-156.5,1427.5,-528.0,1861.75,189.75,5
-546.75,43.25,528.0,-179.5,1901.75,-599.5,1799.0,155.0,5
-728.5,22.25,552.0,-191.0,2459.25,-664.75,1756.0,179.0,5
-707.0,5.0,686.0,-210.75,2827.25,-758.0,1619.25,205.25,5
-429.0,35.25,138.25,-252.0,2864.75,-803.5,1467.25,102.0,5
-258.75,27.0,-526.5,-66.0,2682.0,-953.0,1564.5,-96.5,5
-67.25,51.75,-1027.0,22.5,2220.25,-1202.0,1607.25,-79.75,5
197.75,164.5,-1397.75,34.75,1750.5,-1456.5,1760.0,66.75,5
175.75,447.0,-1562.0,-150.0,1426.75,-1852.5,2186.75,25.25,5
-257.25,786.75,-1493.0,-439.75,1133.75,-1830.75,2621.0,30.25,5
-455.75,691.5,-1389.25,-504.5,685.0,-1590.0,2534.25,167.0,5
-677.25,284.25,-1256.0,-593.5,76.75,-1144.75,2375.0,325.75,5
-861.25,146.0,-877.0,-670.25,-750.25,-588.0,2316.25,250.0,5
-805.25,91.75,-479.5,-509.75,-2503.25,-124.75,2198.25,-141.0,5
-646.5,11.75,-451.5,-416.5,-2419.75,370.0,2165.5,-719.0,5
-346.75,-61.75,-209.75,-344.5,-2313.75,739.25,1932.25,-1313.0,5
118.25,-118.25,143.75,-86.25,-2231.0,969.5,1743.25,-1909.0,5
401.5,-137.25,24.75,68.0,-2240.75,997.75,1650.0,-1774.25,5
641.25,-187.0,-30.0,219.5,-2299.25,749.0,1583.5,-1728.0,5
789.0,-174.75,102.0,320.0,-2359.0,763.5,1366.75,-1892.5,5
712.75,-145.5,375.75,198.5,-2408.0,838.75,1079.75,-1751.75,5
616.75,-185.0,502.75,40.75,-2456.0,468.75,632.75,-1766.5,5
637.25,-271.5,571.25,7.25,-2501.25,191.25,93.5,-2007.5,5
674.0,-266.25,795.25,51.25,-2533.0,290.0,-108.5,-2133.5,5
642.25,-220.75,849.75,93.75,-2438.25,315.5,-193.0,-2268.5,5
491.75,-455.5,1023.0,116.0,-2318.0,600.5,-415.25,-2340.0,5
552.0,-721.0,1212.25,577.5,-2141.75,627.25,-786.25,-2710.0,5
744.0,-782.0,1173.75,859.0,-1724.0,430.0,-775.75,-2511.75,5
799.5,-670.5,1282.25,805.0,-1377.75,327.0,-543.75,-2382.75,5
602.25,-592.25,1366.75,856.25,-1104.25,111.75,-518.75,-2587.5,5
404.25,-372.25,1299.25,776.5,-995.5,-34.5,-387.0,-2107.0,5
269.5,-286.25,1084.5,422.0,-1103.25,-200.25,-322.0,-2055.75,5
198.75,-105.0,883.75,422.75,-1210.75,-412.25,-264.5,-1925.25,5
99.75,-29.75,560.0,205.75,-1291.75,-457.0,-194.75,-1846.75,5
17.25,10.5,61.75,254.25,-1455.25,-470.25,-218.5,-1886.0,5
-60.0,17.75,-271.75,305.0,-1768.0,-507.75,-169.0,-1614.0,5
-193.25,-26.5,-318.25,269.75,-2137.25,-669.0,-159.75,-548.75,5
-163.75,22.75,-25.5,189.75,-2507.0,-711.25,-111.25,532.0,5
-283.25,62.5,148.5,160.0,-2714.25,-876.25,-86.25,982.75,5
-341.0,161.0,-50.25,129.25,-3257.5,-1088.0,-342.0,1146.0,5
-368.5,165.5,41.75,42.5,-3585.25,-1157.5,-609.25,1044.75,5
-482.25,150.75,568.25,-50.5,-3380.5,-1182.5,-871.75,747.5,5
-453.75,155.0,662.75,-145.25,-3159.25,-1234.0,-1115.0,536.5,5
-480.75,175.5,-60.25,-96.25,-2868.75,-1299.75,-1340.5,834.0,5
-442.5,170.75,-580.75,-89.5,-2571.25,-1266.25,-1577.75,1152.5,5
-382.75,173.5,-995.25,-34.5,-2349.25,-1340.25,-1816.75,1371.0,5
-319.25,148.0,-1102.25,-53.0,-2123.25,-1400.5,-1908.0,1795.25,5
-309.5,78.75,-1084.25,-50.5,-1799.5,-1423.25,-1905.5,2198.75,5
-304.75,69.5,-1062.25,-21.25,-1474.25,-1391.75,-1880.25,2318.0,5
-256.75,85.25,-1039.0,-32.0,-1068.75,-1264.0,-1905.0,2203.5,5
-189.25,123.5,-485.0,-75.25,227.5,-1220.0,-1904.75,2003.75,5
-57.25,165.0,197.75,-96.5,686.25,-1243.25,-1926.0,1698.75,5
-17.0,190.25,366.25,-102.25,718.75,-1333.25,-1952.5,1352.5,5
11.25,140.5,209.75,-222.75,700.25,-1179.25,-1960.25,1128.25,5
5.0,128.5,-16.5,-317.25,712.0,-865.0,-1774.25,1111.75,5
-53.75,111.75,-238.5,-391.0,817.5,-561.5,-1042.5,1110.5,5
-49.25,87.5,-485.5,-285.75,846.5,-340.0,-763.25,1093.75,5
-39.5,76.75,-749.0,-183.5,963.25,-73.5,-1065.25,1129.75,5
-47.25,91.0,-904.5,-80.0,1181.25,187.5,-1449.0,1362.75,5
-43.75,152.25,-923.5,-35.5,1514.75,333.75,-1755.25,1525.75,5
-30.0,204.5,-526.5,-61.0,1907.0,518.25,-1979.25,1489.75,5
-28.75,279.0,-427.0,-46.0,2301.75,755.75,-1987.0,1311.0,5
-46.0,219.5,-614.75,-76.5,2570.5,934.5,-2008.75,651.5,5
-64.0,101.0,-385.75,-33.0,2685.25,953.25,-2005.0,-150.75,5
-61.0,53.0,-33.25,-33.25,2735.5,840.25,-1918.25,-723.5,5
-64.0,22.25,154.0,-31.25,2531.25,725.5,-1797.75,-1185.25,5
-73.0,3.5,351.5,-60.5,2254.75,649.5,-1667.0,-2047.5,5
-60.0,30.25,513.5,-99.0,2027.0,587.25,-1574.0,-2307.25,5
-53.5,31.25,599.75,-148.75,1826.0,586.75,-1456.0,-2347.75,5
-53.25,-8.5,665.0,-137.5,1541.5,459.25,-1075.25,-1977.0,5
-58.75,-36.0,758.75,-102.75,1089.75,160.75,-646.0,-1224.25,5
-48.5,-64.0,957.0,-110.0,624.75,-268.5,-0.75,-1086.0,5
-46.0,-80.0,901.5,-120.5,270.5,-500.5,1142.0,-1284.75,5
-51.5,-87.0,547.5,-161.25,156.5,-439.75,1370.25,-1037.25,5
-37.75,-61.5,347.5,-148.0,67.0,-227.75,1407.5,-967.0,5
-42.5,-18.0,99.0,-152.25,-58.5,123.75,1442.0,-565.0,5
-31.0,9.0,-108.0,-124.5,-52.75,262.25,1466.0,941.0,5
-48.25,5.0,-238.25,-136.0,385.25,233.75,1567.75,928.5,5
-62.75,5.5,-274.25,-142.5,1309.75,150.5,1679.75,1021.0,5
-61.75,-17.25,-255.5,-99.25,1523.0,-282.5,1770.5,1026.0,5
-68.0,-46.0,-266.0,-63.75,1752.25,-724.75,1915.0,1024.0,5
-28.5,-39.25,-70.0,-30.5,2001.25,-575.25,1923.75,904.25,5
0.5,-37.0,-137.5,-23.0,2189.0,-303.75,1756.75,680.75,5
38.25,-30.25,-268.75,-38.75,2266.25,-53.25,1489.0,787.25,5
35.75,-10.0,-243.0,-54.0,2228.75,555.25,1096.75,1017.5,5
25.75,0.5,-207.25,-48.5,2160.5,937.75,406.75,1013.25,5
39.5,-16.75,-162.0,-58.5,2127.25,1048.25,-84.5,1010.25,5
-23.25,-57.25,-208.25,-55.0,2075.0,1098.5,-920.0,1005.75,5
-42.75,-82.5,-245.5,-29.0,2035.0,1264.75,-1491.25,1001.5,5
-61.25,-59.75,-200.5,-26.0,1988.5,1411.5,-1669.25,996.25,5
-56.75,-27.75,-106.25,2.0,1878.5,1578.75,-1528.0,1010.0,5
-38.25,12.5,5.25,64.75,1570.5,1793.25,-1148.5,1362.25,5
-28.0,70.75,120.25,74.75,1042.25,1891.25,-967.5,1461.5,5
65.0,86.25,126.75,120.5,444.75,1939.75,-802.0,1585.5,5
135.0,84.0,179.75,69.25,-75.0,1932.0,-696.0,1646.25,5
110.25,97.25,359.75,45.25,-98.25,1936.25,-652.0,1787.25,5
30.25,95.5,487.75,101.5,-150.0,1882.5,-546.0,2017.5,5
1.25,42.75,344.5,142.0,-219.0,1613.5,-206.5,2135.5,5
-51.0,-41.25,234.0,249.5,-287.25,1497.25,-13.0,2323.0,5
-106.25,-103.5,212.75,244.75,-364.25,1421.5,10.0,2367.5,5
-92.25,-128.5,53.75,158.0,-411.75,1446.25,111.5,2112.75,5
-58.5,-129.25,-70.0,92.75,-800.75,1356.0,102.25,1526.0,5
-6.75,-117.75,-139.25,97.5,-2472.0,963.25,-1.25,869.75,5
12.25,-96.75,-133.0,30.5,-2355.25,492.0,-150.75,284.0,5
12.25,-83.0,-109.25,-125.5,-2237.75,39.75,-143.75,72.75,5
51.5,-57.75,-105.5,-214.75,-2079.0,-176.75,41.5,24.75,5
69.0,-55.0,-70.25,-171.25,-1841.5,-251.0,268.25,-44.75,5
53.75,-95.0,-60.25,-82.75,-1577.75,-425.5,328.25,-70.75,5
41.75,-102.0,-53.0,-88.25,-1414.5,-544.25,458.75,-42.25,5
-3.0,-84.25,12.5,-109.75,-1409.5,-406.25,647.5,-307.5,5
-35.25,-75.0,35.5,-134.25,-1434.25,-226.0,717.5,-1831.0,5
-50.0,-44.25,8.0,-79.75,-1556.5,33.5,831.0,-1947.25,5
22.25,28.25,-23.25,-81.0,-1604.0,256.25,922.75,-1981.75,5
123.5,75.5,-57.25,-56.25,-1587.5,195.75,928.0,-1798.75,5
-8.25,84.5,-75.75,20.75,-1509.5,56.0,916.5,-1543.0,5
-134.0,50.75,-93.5,61.75,-1443.75,-56.0,763.25,-1441.75,5
-28.25,26.75,-78.75,99.0,-220.0,-308.0,531.75,-1328.25,5
85.0,35.25,-66.25,24.75,439.25,-543.25,157.0,-1256.25,5
-25.25,42.5,-80.75,-50.75,359.0,-569.5,-222.5,-1215.25,5
-143.25,58.5,-59.5,-88.0,314.5,-603.25,-265.0,-1187.5,5
-118.0,21.75,-29.0,-51.0,136.25,-623.75,-87.25,-1290.5,5
-188.5,-23.5,-26.5,-44.5,-1676.25,-727.25,99.75,-1456.75,5
-206.5,-45.25,-14.0,-66.0,-1026.75,-877.75,290.5,-1541.25,5
-204.25,-72.75,19.75,-73.75,-145.25,-1011.5,373.0,-1682.75,5
-135.75,-181.75,35.25,-113.0,-254.75,-1156.0,527.0,-1404.75,5
-15.25,-501.0,-174.25,-319.0,-768.25,-1639.25,774.25,-556.25,5
-40.0,-753.25,-626.75,-697.25,-838.25,-1907.0,814.25,-333.25,5
230.0,-584.0,-533.0,-636.75,-801.0,-1869.25,969.25,-21.0,5
632.0,-225.0,-394.5,-490.5,-945.25,-1792.5,1181.75,780.0,5
498.0,-103.0,-452.5,-534.25,-944.25,-1698.25,1457.5,1251.0,5
499.75,260.0,-262.25,-343.75,-887.75,-1547.75,1827.75,1618.25,5
609.75,440.0,-211.0,-298.5,-816.75,-1556.75,2136.75,1647.5,5
642.25,548.75,-63.5,-140.0,-647.5,-1365.25,1891.25,1489.75,5
712.25,534.25,37.25,10.75,-761.5,-1451.0,1583.0,1186.25,5
746.75,759.75,-10.75,200.5,-1263.5,-1455.5,1496.25,642.5,5
758.5,763.75,68.25,287.25,-1540.75,-1263.25,1466.25,615.0,5
543.0,501.5,6.75,216.0,-1320.75,-1125.0,1230.5,717.25,5
377.75,364.0,-2.0,229.0,-1092.5,-997.5,850.75,787.5,5
135.25,251.5,79.5,202.5,-1166.0,-977.75,812.5,779.5,5
-16.5,301.75,266.5,242.75,-788.25,-950.75,669.0,838.25,5
-139.5,111.75,344.0,182.75,428.0,-758.75,265.0,980.25,5
-274.0,-179.0,346.75,162.5,1107.5,-537.5,-207.25,1135.0,5
-379.25,-425.75,332.5,111.75,1035.5,-399.25,-421.5,1170.5,5
-541.0,-481.0,332.75,132.0,630.25,-305.25,-245.5,1044.5,5
-777.0,-423.5,599.75,440.0,119.5,-10.25,-27.75,648.0,5
-939.75,158.5,751.5,713.25,-50.5,-60.0,-114.25,1010.25,5
-689.0,66.0,237.5,-170.25,-720.75,-663.75,-149.0,2353.5,5
-42.5,-572.0,-475.5,-767.5,-558.0,-581.5,0.25,2488.25,5
587.0,121.75,-473.0,-667.25,-147.25,-275.75,57.25,2395.5,5
599.0,169.25,-401.0,-502.25,613.75,-290.0,-91.25,2942.25,5
512.75,244.75,-411.0,-361.25,1318.25,-172.75,-277.0,2406.0,5
593.25,689.5,-333.5,-22.5,1463.5,-60.5,-314.75,1982.5,5
394.25,418.25,-367.5,-122.25,1452.75,137.5,-199.0,1075.0,5
562.5,578.75,-376.25,116.5,1879.5,418.0,-127.5,196.75,5
259.75,339.0,-243.0,24.25,1942.75,473.5,20.75,-326.5,5
-76.25,271.75,121.5,130.75,2204.0,672.75,-38.5,-728.25,5
-322.0,55.25,368.25,81.5,2302.75,870.25,-220.0,-992.5,5
-546.0,4.5,372.5,75.0,2413.25,939.5,-245.0,-1310.75,5
-473.25,38.0,177.75,86.5,523.25,685.0,-174.5,-1215.5,5
-491.0,-67.75,216.0,123.75,584.75,174.75,48.75,-1253.25,5
-404.75,-10.25,272.25,245.75,671.75,-107.25,173.25,-1179.0,5
-387.75,-139.5,259.25,229.25,668.75,4.25,163.25,-1212.5,5
-254.75,-74.5,306.5,278.0,733.25,693.75,-111.75,-1167.25,5
-298.25,-192.0,176.25,271.0,685.75,1112.25,-254.75,-1167.25,5
-388.25,-276.25,157.75,274.75,714.5,1020.75,73.5,-1154.0,5
-367.5,-392.75,205.0,243.5,668.75,889.0,-463.0,-1136.0,5
-282.5,-342.0,317.75,262.5,662.5,832.75,-1090.5,-1147.0,5
-149.75,-282.75,387.75,264.5,625.25,886.75,-1523.0,-1113.5,5
-106.25,-259.0,358.75,268.5,630.5,1052.5,-1602.25,-1150.0,5
-90.75,-157.25,436.0,203.75,650.5,1253.75,-1428.5,-1364.0,5
-183.25,-131.0,628.25,243.25,633.25,1489.5,-1218.75,-1263.5,5
-142.25,-79.25,594.0,285.75,630.0,1784.5,-1171.75,448.0,5
-187.0,-94.0,276.0,189.5,525.5,1961.0,-1329.5,490.25,5
-260.75,-97.25,-51.75,149.5,475.75,2008.75,-1120.5,578.75,5
-262.25,-110.0,-168.25,114.75,432.75,8.5,-693.25,810.0,5
-200.5,-109.25,94.25,108.0,388.5,-19.25,-570.5,906.25,5
-121.0,-157.5,256.5,125.5,337.0,-469.25,-382.75,913.0,5
-89.75,-225.25,419.25,128.75,307.75,-956.5,-142.0,919.0,5
-54.5,-270.75,547.5,81.75,302.5,-683.25,-72.75,952.5,5
-56.5,-174.5,210.75,75.25,254.0,-756.25,-235.0,-515.5,5
52.75,-58.0,-114.25,65.25,181.75,-535.25,-379.75,-272.25,5
38.75,-81.75,-183.5,30.25,27.75,-5.0,-37.5,-624.75,5
-59.5,-110.0,65.25,-11.75,-231.5,-86.5,406.75,-715.5,5
19.25,-127.25,352.75,-59.75,-370.5,80.5,657.5,-378.5,5
65.5,-68.25,-224.25,-71.25,-392.0,40.0,555.5,-222.0,5
-15.0,-1.0,-895.25,-1.5,-375.25,-202.5,346.75,-296.75,5
-17.25,38.0,-970.75,23.75,151.5,-720.0,351.25,-292.75,5
-44.25,-7.75,-946.25,33.25,430.0,-957.0,1856.0,-738.75,5
-94.0,-33.25,-945.0,72.75,573.0,-473.5,869.25,-1309.0,5
16.5,27.5,-902.0,42.5,1274.25,-220.0,32.25,20.75,5
190.5,41.0,-707.5,16.25,2494.5,-147.75,-133.75,-263.25,5
113.5,39.25,-583.0,-54.5,1992.5,-119.0,94.25,-23.25,5
-246.75,-9.0,29.0,-104.75,1220.75,179.5,-822.0,-127.75,5
-434.5,-85.0,742.75,-106.0,841.25,496.0,909.75,-193.25,5
-442.5,-137.25,723.0,-140.75,1095.25,745.25,919.5,-60.0,5
-111.5,-159.75,71.5,-182.75,319.25,892.5,930.0,68.75,5
418.0,-113.5,-336.25,-133.25,-738.25,1004.0,820.25,-9.5,5
330.0,-132.25,-487.5,-73.25,-658.25,1399.75,-1690.75,1.75,5
-21.25,-307.0,-279.0,-100.0,-661.25,1928.0,-2356.5,245.5,5
-277.75,-576.5,397.75,-175.25,-1025.0,2367.25,-2206.5,468.25,5
-648.0,-538.25,311.5,-185.5,-1292.75,2492.0,-1887.75,-142.75,5
-624.25,-418.25,192.5,-42.0,-1430.75,2326.0,-1525.25,-2031.75,5
-421.75,-397.5,278.5,264.75,-1667.25,1892.75,-1320.75,-2359.0,5
-318.5,155.75,541.5,593.5,-1715.75,1516.25,-1517.5,-2879.0,5
-307.75,1047.5,745.0,492.25,-1415.75,1214.75,-2289.25,-2758.75,5
-411.75,1005.5,546.25,365.25,-246.5,865.75,-2892.75,-2488.25,5
-297.5,684.25,590.0,361.0,1029.75,501.0,-2892.25,-2546.75,5
-214.75,806.5,376.75,138.0,1014.5,228.5,-2739.0,-2232.25,5
-10.5,432.5,80.5,138.5,719.75,115.75,-985.75,-2038.75,5
114.75,440.25,-27.75,76.5,319.75,54.25,210.0,26.0,5
209.25,300.0,-220.25,0.5,22.5,92.0,698.25,236.5,5
293.25,237.25,-310.25,-54.75,-13.25,106.25,985.75,437.75,5
388.0,278.5,11.0,-34.5,207.25,18.0,996.75,695.5,5
311.75,171.0,464.75,0.75,466.75,-125.25,1000.75,825.25,5
123.75,207.25,669.0,-89.5,400.25,-473.0,990.75,1111.5,5
4.5,97.5,483.75,-151.75,1261.75,-540.0,724.0,1262.0,5
-1.5,92.75,-203.25,-298.5,1909.75,-491.0,599.0,1440.75,5
246.25,-30.75,-765.5,-441.25,1742.75,-502.5,408.25,1501.0,5
449.5,-25.75,-1200.25,-531.25,1407.25,-627.75,515.0,1600.25,5
510.75,-54.0,-1195.75,-506.5,931.5,-1175.75,109.75,1694.0,5
379.5,-121.25,-826.75,-439.0,277.75,-2158.0,744.25,1835.75,5
175.25,-178.75,-426.25,-374.75,-1943.0,-2065.5,1955.5,2007.25,5
91.25,-211.25,146.0,-347.75,-1862.75,-1970.75,2410.75,2179.25,5
85.25,-214.75,601.75,-316.25,-1994.75,-1859.75,2334.75,2348.0,5
46.5,-188.75,553.0,-330.25,-2915.75,-1635.25,2218.25,2446.25,5
88.0,-134.5,354.25,-377.0,-3189.0,-1320.25,2341.25,2450.75,5
-32.25,-146.25,346.5,-350.0,-2917.5,-979.75,2455.75,2447.25,5
-261.0,-133.0,91.75,-304.0,-1326.25,-586.0,1956.75,2686.0,5
-219.5,-169.25,-549.75,-266.5,-639.5,-637.25,974.25,2624.5,5
-37.75,-156.25,-868.0,-251.75,-542.5,-653.0,367.75,2631.75,5
373.5,-127.5,-600.0,-180.0,-404.75,-643.5,-254.0,2870.75,5
923.75,-46.25,8.75,-91.75,-303.75,-587.0,-1579.5,3038.25,5
988.5,-32.5,522.25,-89.5,-125.25,-499.75,-1905.0,1100.0,5
408.0,-115.0,434.5,-136.25,-137.25,-383.75,-1818.75,1083.5,5
43.5,-151.5,59.75,-119.0,-259.0,-153.5,-1352.75,1082.0,5
-90.5,-191.0,-293.75,-59.0,-265.0,99.75,-1358.25,1026.5,5
-250.75,-234.75,-220.0,10.5,-248.0,1005.75,-933.75,1054.5,5
-179.75,-213.0,107.75,12.75,-123.25,2271.75,-679.25,1018.0,5
0.0,-117.25,-1.25,-55.75,-81.25,2064.5,-610.25,869.25,5
158.5,-23.25,-412.0,-25.0,-64.0,1905.0,-656.25,713.0,5
149.75,30.25,-658.25,51.0,-92.0,1751.0,-936.75,517.0,5
75.25,30.25,-511.0,35.0,-107.25,1241.75,-1007.0,1396.75,5
-31.75,4.5,118.0,8.0,-73.5,981.0,-1002.75,657.0,5
-62.5,-28.0,587.75,-97.25,-166.75,986.5,-998.0,-205.0,5
-21.0,-14.0,500.0,-155.25,-277.0,992.0,-990.5,-322.0,5
8.75,-18.25,92.25,-139.0,-384.25,978.0,-989.0,98.5,5
71.5,-182.75,-282.25,-226.75,-574.25,744.75,-1088.0,750.25,5
153.5,-533.5,-359.75,-409.5,-330.25,580.0,-1001.0,697.5,5
129.25,-54.25,-929.25,-5.25,1067.25,1382.75,-262.75,50.5,5
-169.5,969.0,-1392.75,429.75,1002.25,1661.25,74.5,289.5,5
-140.0,929.5,-1142.75,75.0,-160.75,1150.75,35.0,265.5,5
-168.75,666.0,-706.25,241.25,155.25,1360.75,154.25,-588.75,5
-269.75,768.25,171.25,161.5,960.75,1157.0,145.75,-646.5,5
