0,1,2,3,4,5,6,7,label
-48.0,-62.0,-55.25,-72.5,-67.0,-46.5,-64.75,-58.25,6
-56.5,-63.0,-72.25,-76.25,-75.0,-49.0,-64.25,-71.25,6
-53.5,-65.25,-75.5,-89.75,-71.5,-53.0,-65.5,-68.5,6
-71.0,-70.75,-71.75,-104.25,-52.0,-55.5,-64.75,-71.5,6
-73.25,-66.25,-80.0,-110.0,-46.25,-48.75,-67.75,-80.75,6
-67.25,-73.5,-82.25,-99.75,-57.75,-48.5,-70.75,-73.0,6
-67.0,-84.25,-81.75,-95.75,-64.75,-56.5,-62.0,-69.0,6
-72.5,-74.0,-74.75,-99.25,-64.5,-48.75,-63.75,-61.25,6
-75.75,-71.5,-74.5,-85.5,-55.25,-50.0,-62.25,-69.25,6
-65.25,-61.25,-79.25,-84.5,-39.75,-34.5,-55.0,-55.75,6
-64.5,-52.5,-66.75,-79.5,-20.5,-17.75,-45.0,-42.75,6
-59.5,-44.0,-62.25,-58.5,6.25,-18.5,-32.25,-39.0,6
-47.75,-35.5,-59.75,-51.75,21.0,-14.25,-16.0,-30.5,6
-32.5,-31.25,-60.5,-29.75,17.25,-12.25,-22.25,-22.5,6
-32.5,-20.5,-37.0,-32.0,18.5,-5.5,-8.5,1.0,6
-27.25,-21.75,-32.0,-25.5,20.25,1.0,8.5,1.0,6
-19.5,-15.5,-36.75,-15.0,7.75,10.75,-0.25,5.0,6
-20.75,-14.0,-34.0,-13.5,-4.5,17.75,0.5,4.75,6
-20.0,8.75,-29.75,13.25,-11.75,26.0,7.75,12.75,6
-11.75,17.75,-16.0,14.0,4.5,44.25,28.75,21.0,6
4.75,12.75,-17.0,5.0,22.75,60.0,41.0,23.5,6
3.5,27.5,-11.75,4.0,21.0,68.0,44.25,49.0,6
11.75,19.75,0.25,8.75,33.0,59.5,57.5,45.75,6
20.0,31.5,16.5,18.25,65.25,63.0,47.75,46.25,6
11.25,31.75,18.0,22.75,72.0,48.75,58.5,60.0,6
9.0,27.25,26.75,20.75,89.75,49.75,56.75,60.5,6
12.0,51.0,25.75,23.5,148.75,52.0,51.75,55.5,6
17.25,49.0,20.0,27.25,166.25,50.75,72.25,63.75,6
22.5,46.0,21.75,38.75,132.75,58.75,63.75,62.5,6
8.0,44.5,22.5,45.0,110.5,57.25,75.75,58.5,6
14.25,46.5,24.75,42.25,103.25,64.0,83.25,76.25,6
19.25,56.75,27.75,52.25,77.25,63.25,69.25,75.0,6
11.75,57.0,32.75,45.0,24.75,66.75,79.5,70.25,6
18.75,50.75,30.25,42.0,-52.75,57.0,74.75,73.5,6
18.25,59.75,37.0,44.0,-143.0,73.5,72.25,86.0,6
26.0,65.75,30.25,53.0,-166.5,85.0,84.5,84.75,6
22.75,61.5,35.5,47.5,-68.5,61.75,82.75,69.25,6
18.5,57.25,36.0,30.25,75.0,64.0,83.75,68.75,6
19.75,52.75,20.75,31.0,145.5,62.25,68.25,68.75,6
12.25,39.5,25.5,15.0,146.5,55.5,62.25,68.0,6
19.0,35.5,19.75,11.5,115.75,42.25,73.5,53.75,6
14.5,38.75,21.25,18.0,85.25,48.5,62.5,46.5,6
18.5,40.0,19.0,15.5,82.75,61.25,58.75,45.25,6
23.5,32.25,8.5,7.0,64.25,40.25,59.5,38.0,6
17.0,24.25,1.0,4.5,62.5,40.25,58.75,26.5,6
12.5,32.5,4.5,-3.25,60.25,40.0,53.5,25.5,6
17.25,13.25,17.0,-11.0,50.5,47.5,42.75,36.75,6
19.5,10.75,19.5,1.0,51.25,60.5,48.75,30.0,6
10.0,12.25,21.5,-11.0,47.25,47.5,33.5,30.0,6
11.5,-4.25,14.25,-9.25,53.25,45.5,25.0,27.25,6
0.0,3.5,1.5,-17.75,58.5,38.0,22.0,22.0,6
0.0,9.75,-0.5,-17.0,46.5,43.75,19.75,26.75,6
-1.25,7.75,-4.75,-19.75,36.75,37.25,31.25,19.75,6
-14.0,10.25,0.75,-13.0,33.5,22.5,14.75,14.75,6
-13.75,3.0,6.0,-9.25,30.0,25.0,24.75,17.25,6
-15.25,4.0,-2.0,-22.5,24.75,25.75,24.75,19.25,6
-12.5,9.5,-0.25,-15.75,9.5,23.75,11.5,19.0,6
-21.0,6.75,1.5,-27.5,16.0,12.25,21.25,14.0,6
-27.75,0.0,0.25,-20.0,11.5,21.0,12.25,10.75,6
-36.75,-0.25,-14.25,-24.0,1.5,19.0,14.0,12.0,6
-43.0,-2.25,-13.75,-21.75,1.25,18.5,25.0,17.0,6
-34.5,-2.5,-21.5,-31.5,8.5,24.75,27.0,11.25,6
-45.75,5.0,-23.75,-30.0,8.25,18.25,18.25,5.75,6
-36.0,9.75,-15.5,-18.25,3.25,16.0,19.5,5.25,6
-11.0,4.25,-20.75,-38.25,10.5,10.0,13.75,3.75,6
-18.25,-3.5,-19.25,-27.5,9.25,22.25,25.0,10.25,6
-0.75,-3.0,-12.75,-27.5,10.5,26.0,31.5,15.5,6
33.25,-2.0,-2.25,-14.75,22.5,24.5,31.5,17.25,6
54.0,5.0,-3.5,-4.0,40.75,28.0,34.75,24.0,6
52.5,13.0,-2.5,-12.75,50.75,27.75,31.25,24.25,6
45.25,7.75,-6.25,-9.5,52.5,28.25,31.25,19.25,6
39.0,1.25,-6.75,-17.0,37.5,32.25,18.0,24.5,6
30.25,5.5,2.5,-14.5,30.75,32.75,19.5,22.0,6
20.0,7.5,5.0,-24.25,23.25,21.0,19.25,18.25,6
5.5,6.75,-4.0,-24.75,23.5,22.0,20.5,5.0,6
2.75,7.75,-9.25,-25.0,9.0,25.0,9.75,-5.75,6
-10.5,-3.5,-5.25,-21.0,-8.0,19.0,5.0,-2.0,6
-11.25,-1.0,-14.0,-19.0,-14.75,9.75,7.5,-0.25,6
-25.75,3.5,-15.5,-24.25,-21.25,16.5,2.0,-2.25,6
-40.0,-6.75,-22.25,-20.5,0.0,12.0,0.25,3.25,6
-40.5,-4.25,-23.5,-26.0,10.75,-1.0,2.5,2.0,6
-53.75,-8.5,-21.5,-26.25,8.0,12.5,21.0,4.25,6
-45.25,-15.0,-18.25,-32.75,10.75,1.25,14.0,5.0,6
-51.5,-18.75,-21.75,-28.5,-2.25,3.0,10.75,7.0,6
-54.0,-21.5,-22.75,-14.5,-10.25,8.25,23.75,11.75,6
-59.25,-18.25,-14.75,-23.25,5.75,7.5,20.5,3.5,6
-43.5,-25.25,-17.5,-23.5,10.0,12.75,19.75,9.5,6
-25.0,-19.75,-5.0,-27.25,19.0,11.5,24.75,10.0,6
-7.75,-17.25,-11.25,-23.0,33.0,31.75,15.75,16.75,6
-3.0,-11.75,-15.5,-7.75,42.25,35.0,25.0,17.25,6
0.5,0.5,-3.0,-1.0,41.25,34.0,30.0,22.25,6
8.75,-4.5,-0.25,4.5,49.75,40.25,14.25,25.0,6
-13.75,-3.0,-10.75,-0.75,57.5,30.75,24.75,26.5,6
-8.0,-3.75,-7.25,-16.5,37.0,13.5,25.75,34.5,6
-2.0,-9.25,-6.0,-18.75,25.5,14.25,18.25,11.0,6
-7.0,-2.25,-8.25,-10.25,19.25,26.0,15.75,16.25,6
-14.75,-8.0,3.75,-8.5,26.5,25.25,7.0,13.0,6
-13.25,0.25,-8.25,-15.25,33.25,19.5,9.0,10.25,6
-15.5,5.0,-1.0,-17.25,30.75,20.75,27.25,12.75,6
-13.5,-2.25,10.75,-12.0,34.25,25.0,38.25,28.75,6
-6.25,-1.5,1.5,-23.5,32.0,23.75,33.25,19.25,6
-16.75,-5.0,-7.75,-19.75,28.5,30.25,26.25,3.0,6
-2.0,-13.25,-4.75,-18.0,37.25,22.75,25.25,25.25,6
-18.75,-6.75,-9.0,-26.75,44.0,26.75,27.5,6.5,6
-15.5,-6.0,-14.75,-30.5,27.75,32.25,17.5,24.5,6
-2.25,-3.0,3.25,-29.25,38.25,32.0,27.5,26.25,6
-13.0,4.75,-0.25,-21.5,69.5,24.0,20.0,11.25,6
5.75,4.5,-0.5,-17.5,71.25,6.75,16.5,8.0,6
-1.25,9.75,-8.75,-17.0,67.25,32.25,24.25,2.5,6
1.5,8.0,-8.25,-3.25,48.5,32.25,32.5,18.25,6
7.75,24.75,2.5,-9.25,-30.5,37.75,42.0,16.0,6
15.25,27.0,-3.75,-8.0,-72.75,40.75,27.5,14.25,6
7.0,31.25,3.5,-2.25,-84.25,41.25,27.75,27.5,6
2.75,24.25,-5.5,-15.0,-90.75,42.0,30.75,25.0,6
10.25,12.0,-8.0,-4.75,-96.0,29.25,25.5,29.5,6
-6.25,17.75,7.5,-14.0,-80.0,41.0,26.5,20.75,6
-7.0,9.5,-1.5,-9.25,-20.25,32.25,18.5,17.75,6
-1.0,12.75,-13.0,-7.25,27.0,28.0,18.0,25.25,6
-8.5,4.5,0.25,-21.25,75.5,26.0,14.75,21.0,6
-17.25,8.0,-3.5,-3.25,110.75,14.25,14.25,26.75,6
-20.75,-7.0,-5.75,-6.5,115.75,24.75,17.5,22.0,6
-18.0,8.25,2.75,1.25,71.25,22.0,25.75,15.25,6
-8.0,18.5,6.25,-1.75,61.5,20.25,14.5,23.5,6
-17.5,0.25,-12.75,-9.75,58.5,25.0,6.25,8.75,6
-19.0,8.5,-15.5,-13.0,34.25,10.25,8.75,6.75,6
-19.5,9.25,-8.0,-17.25,35.0,12.25,5.5,15.5,6
-26.5,14.0,-7.75,-12.75,32.75,22.75,17.5,8.75,6
-14.0,11.0,-3.75,-3.5,33.5,24.75,20.0,18.75,6
-13.5,7.75,-9.75,-0.5,16.75,22.25,22.5,10.0,6
-21.25,11.75,-5.75,6.25,27.25,23.0,24.5,26.0,6
-23.75,7.5,-8.5,16.0,41.0,25.25,30.25,32.75,6
-11.25,10.5,-8.75,4.5,40.75,28.75,45.75,24.5,6
-11.75,13.0,-10.75,2.25,32.25,11.75,34.75,27.0,6
-11.75,7.75,-8.25,-16.0,25.0,10.25,24.5,14.75,6
7.0,6.25,-7.25,-15.0,27.25,7.75,30.25,13.5,6
-15.75,-7.0,0.5,-28.25,5.75,1.0,21.0,9.0,6
-22.0,-13.0,-7.25,-47.5,-2.75,13.75,14.5,5.75,6
-14.5,2.25,-17.75,-38.25,-6.5,6.0,10.5,-4.0,6
-17.75,-8.25,-11.0,-47.5,-7.25,-1.0,11.5,-4.5,6
-13.75,-6.5,-11.0,-37.5,-11.25,-3.75,13.75,-1.75,6
-5.5,-6.0,-17.75,-35.75,0.5,8.5,17.75,2.75,6
-8.25,-9.25,-11.75,-36.75,12.25,8.5,25.5,8.5,6
-16.25,-10.25,-5.75,-47.75,11.75,10.5,30.25,4.75,6
-15.5,-16.5,-7.0,-36.5,29.0,20.0,37.25,4.75,6
-12.75,5.75,6.75,-26.25,33.25,19.25,23.0,22.75,6
1.0,2.25,2.25,-25.75,30.5,21.75,25.0,17.5,6
10.75,9.0,1.75,-19.75,25.25,19.0,30.25,22.5,6
10.75,13.0,-7.5,-19.5,23.5,24.5,24.25,28.0,6
13.0,17.5,-3.75,-11.75,23.5,25.5,25.25,21.75,6
-4.75,26.0,5.5,-15.75,27.75,28.25,21.25,28.5,6
-7.75,15.0,-1.0,-5.0,47.5,34.5,25.0,16.75,6
-12.0,23.25,-4.75,-14.25,52.5,28.75,31.0,25.0,6
-27.25,27.5,-3.5,-3.0,40.25,22.25,38.5,25.25,6
-40.0,23.5,-5.75,-8.5,67.0,31.75,35.5,32.5,6
-42.0,14.5,-12.5,-13.75,74.5,27.5,30.25,32.25,6
-20.25,13.25,-8.25,-9.5,47.25,25.5,22.5,23.5,6
-10.0,2.75,-14.25,-20.0,33.0,32.25,30.25,22.5,6
12.25,-4.25,-18.5,-8.0,17.5,27.0,39.5,16.5,6
19.75,4.0,-7.0,-22.0,2.5,34.75,28.75,32.5,6
36.25,1.25,-1.5,-21.75,-29.0,32.0,29.75,36.25,6
46.5,-1.75,-15.75,-19.5,-32.25,23.5,26.5,24.75,6
30.5,-6.75,-13.5,-12.75,-28.0,40.5,25.5,13.25,6
24.0,-2.25,-8.0,-11.0,-29.5,45.0,32.75,14.5,6
19.75,7.75,-10.0,0.75,-8.75,41.25,43.75,23.75,6
17.0,3.25,-0.5,4.25,2.5,41.0,39.75,32.0,6
19.0,-2.0,-1.75,-11.75,9.75,29.0,34.75,10.25,6
20.75,-1.5,-1.0,-4.25,31.75,26.0,36.25,5.0,6
9.25,3.25,-1.25,-7.25,35.0,29.0,32.5,11.75,6
-9.25,9.0,-1.25,-13.0,39.0,22.75,31.5,16.25,6
-26.5,4.25,2.0,-9.5,36.25,22.5,18.25,21.25,6
-26.0,7.25,-5.0,-4.75,37.0,27.0,18.5,13.25,6
-20.25,7.5,-2.75,-10.5,45.75,5.5,18.0,20.75,6
-21.5,-8.75,0.75,-16.5,41.75,11.25,4.0,16.75,6
-22.25,1.5,-4.25,-22.5,45.5,13.25,4.0,13.25,6
-29.25,-2.5,0.5,-17.25,26.5,-6.5,6.75,12.25,6
-30.0,-7.5,-10.75,-3.5,9.0,-5.75,13.25,-3.25,6
-30.75,-9.25,-14.5,-20.0,-9.0,6.0,13.5,5.75,6
-29.0,-11.5,-6.5,-19.5,-7.0,18.5,11.25,14.5,6
-31.75,-4.5,-9.0,-18.5,15.5,21.0,20.75,9.0,6
-30.25,-13.25,-3.5,-9.5,31.5,18.75,23.0,17.75,6
-21.5,0.0,-2.25,-4.25,38.0,20.0,15.25,18.0,6
-28.5,-9.0,-12.0,-23.5,29.25,26.25,11.0,21.5,6
-27.0,-11.75,-17.75,-11.25,41.0,22.0,8.75,25.5,6
-26.0,-3.5,-9.0,-4.5,33.5,21.5,17.0,17.75,6
-17.25,-4.5,-6.25,-15.25,26.75,23.25,23.0,10.25,6
-11.5,2.75,-11.5,-10.75,34.5,28.0,23.5,5.75,6
-12.25,8.5,-7.75,-3.5,43.25,24.75,21.5,15.5,6
-10.0,1.25,-2.75,-0.75,54.75,25.25,9.5,25.0,6
-13.25,-0.75,1.75,-3.0,47.25,37.0,17.5,17.25,6
-9.75,10.5,-4.25,2.75,62.5,40.5,39.25,19.5,6
-5.0,7.75,10.25,2.5,62.75,44.25,39.5,21.25,6
-9.75,17.0,7.75,-9.75,38.75,40.75,27.25,22.0,6
-17.25,12.5,-3.25,-10.25,43.25,37.5,28.0,28.25,6
-14.25,7.25,-13.0,-5.0,45.0,44.75,31.75,27.5,6
-19.0,21.5,-8.75,3.5,23.75,50.25,40.5,33.0,6
-6.25,25.75,7.75,7.25,-19.25,45.25,47.5,42.75,6
12.25,25.25,-5.0,3.75,-47.75,42.0,37.25,38.5,6
1.75,18.5,-7.25,-3.0,-31.5,43.5,21.75,12.75,6
0.75,13.25,0.75,-6.75,-7.5,46.5,23.75,22.0,6
1.0,13.75,3.0,-4.75,11.25,35.0,35.25,25.0,6
-0.5,9.25,-3.25,-0.25,8.0,28.0,24.0,16.75,6
-3.0,-5.0,-3.25,-10.5,-20.5,34.0,24.0,18.75,6
-8.75,-7.5,-4.5,-14.5,-39.0,25.5,21.0,14.0,6
0.0,2.0,-5.0,-24.25,-23.0,25.75,17.5,17.75,6
-2.75,6.75,-12.0,-23.75,20.5,14.75,15.0,4.25,6
4.75,-1.0,-13.75,-20.0,41.5,7.0,8.25,6.25,6
5.75,-0.25,0.75,-19.5,32.25,8.0,18.0,-10.75,6
-5.0,-2.75,-14.0,-23.0,35.0,0.25,5.0,-28.5,6
-3.75,-6.0,-11.5,-45.0,44.0,3.0,7.25,-15.25,6
-5.0,-7.0,-18.25,-32.5,34.5,-2.5,2.75,-16.5,6
-0.75,-4.5,-17.75,-27.25,21.25,4.75,11.5,-13.5,6
-6.25,-3.5,-2.25,-29.0,-1.0,4.5,3.75,-4.0,6
-13.5,-5.5,-15.5,-36.5,-3.0,-2.25,-0.5,2.75,6
-5.75,0.5,-6.25,-37.0,14.5,6.0,15.25,3.5,6
-6.0,-8.75,1.5,-25.5,19.5,12.25,11.0,9.75,6
-7.25,-9.5,-13.25,-31.75,28.75,11.25,22.0,8.5,6
-8.75,-10.75,-17.0,-28.5,44.75,11.0,22.0,15.5,6
-20.25,-7.0,-3.0,-17.25,53.0,17.75,31.25,13.25,6
-26.25,0.25,-8.25,-23.0,66.25,20.75,25.25,17.0,6
-18.5,3.25,-12.0,-6.0,66.25,23.75,21.75,17.75,6
-15.5,7.25,-8.0,-5.5,63.75,19.25,27.5,21.25,6
-22.5,5.0,-7.0,-18.75,70.75,26.5,31.75,32.5,6
-9.25,9.75,9.25,5.25,62.25,31.0,43.25,32.5,6
-20.5,11.75,2.25,-1.5,55.25,34.5,37.25,37.5,6
-36.0,4.75,5.25,-11.0,65.75,28.25,40.0,36.0,6
-47.75,3.5,2.5,-7.0,75.5,27.0,42.25,32.5,6
-63.5,17.75,12.5,-9.25,55.5,28.5,40.5,31.75,6
-51.75,24.0,12.5,-0.25,46.5,38.0,47.25,34.5,6
-37.5,22.5,-3.25,-4.5,28.25,40.75,44.75,38.5,6
-20.25,15.25,-2.75,-1.5,-1.75,13.25,36.25,30.5,6
-10.25,13.75,-9.5,-7.5,-1.75,33.25,32.0,13.0,6
21.5,16.25,5.5,-6.75,-25.75,20.25,24.5,24.25,6
42.0,15.75,-3.5,-17.75,-39.0,15.5,26.25,20.5,6
52.5,11.5,-14.0,-18.75,-46.0,25.25,26.0,18.0,6
49.25,10.5,-18.0,-18.0,-55.75,19.75,26.25,19.5,6
31.0,11.0,-2.0,-15.0,16.5,31.25,28.0,16.0,6
32.0,6.0,-11.75,-3.0,68.75,16.75,23.0,23.0,6
13.75,6.0,-23.25,-7.0,45.5,28.25,19.75,19.5,6
6.75,6.5,-1.75,-4.75,27.75,24.5,21.5,17.25,6
9.5,1.25,-9.25,-5.0,-0.25,16.25,17.5,15.75,6
-8.25,-2.5,-3.0,-4.5,-8.25,24.5,22.0,12.0,6
-31.5,-8.5,-13.5,-12.5,4.5,16.0,19.5,9.25,6
-38.0,-0.25,-14.75,-15.75,18.75,16.75,12.25,6.0,6
-39.0,4.5,-6.5,-13.0,32.0,20.25,20.75,12.25,6
-47.75,12.75,0.25,-19.5,34.0,21.75,17.5,14.0,6
-28.75,1.0,4.25,-25.25,26.5,16.5,15.25,15.5,6
-6.5,-7.75,-12.5,-26.0,13.25,12.0,19.75,10.0,6
17.0,-1.25,-7.0,-22.25,26.5,20.5,15.5,21.25,6
37.5,-9.5,-2.75,-19.5,39.25,26.25,16.5,30.75,6
46.5,2.25,-1.0,-15.5,28.75,26.0,21.75,17.0,6
52.75,-1.5,12.25,-15.0,46.5,38.5,18.0,22.75,6
52.5,5.75,10.0,-15.75,61.0,51.75,28.75,25.5,6
25.5,14.75,2.0,-10.5,48.5,47.5,25.75,29.0,6
6.25,26.25,-3.25,-1.75,42.5,39.5,34.75,38.25,6
-1.0,25.75,-5.5,-11.25,45.0,39.5,40.75,28.75,6
-19.75,12.5,-2.25,-6.25,44.0,41.25,23.5,26.25,6
-20.5,25.0,-10.0,-9.25,37.75,42.0,29.5,27.25,6
-20.5,7.25,4.5,-23.25,28.0,38.5,31.0,31.25,6
-31.75,0.25,6.25,-15.5,16.75,45.0,34.0,32.0,6
-40.0,14.75,7.0,-23.25,10.5,43.75,37.5,28.5,6
-27.75,12.5,9.5,-28.5,10.25,34.25,31.75,27.75,6
-29.5,0.25,-11.25,-29.0,6.25,28.25,18.25,26.75,6
-29.0,-8.25,-13.5,-28.25,6.75,23.0,13.75,18.75,6
-35.0,-7.25,-15.5,-17.75,3.25,13.0,10.75,2.75,6
-34.25,-7.5,-17.5,-19.5,-7.75,5.0,7.25,0.75,6
-38.5,3.75,-19.75,-36.5,-12.75,2.0,5.0,8.0,6
-47.25,-2.25,-15.75,-40.75,1.75,1.75,-10.75,5.25,6
-34.75,-8.75,-17.5,-39.75,9.75,10.75,-1.0,3.75,6
-29.75,4.0,-26.5,-42.0,10.75,19.25,-4.5,2.75,6
-20.25,4.5,-22.25,-41.5,18.0,15.0,6.0,-0.5,6
-23.25,0.5,-24.0,-30.75,18.5,16.5,20.25,-1.75,6
-16.75,2.75,-18.75,-24.75,33.0,22.0,20.5,3.0,6
-14.75,1.75,-9.5,-15.75,33.5,18.0,22.25,9.75,6
-24.5,-8.0,-2.5,-9.75,41.75,25.75,26.75,11.5,6
-15.25,-1.75,-12.5,-18.5,46.0,33.0,24.25,6.75,6
-21.25,6.0,-8.25,-11.5,36.5,35.25,25.5,4.5,6
-21.0,8.5,-3.0,-5.0,60.25,25.0,27.75,8.5,6
-6.5,5.75,-7.75,-13.75,70.0,38.0,15.0,20.0,6
-20.5,3.25,-2.75,-21.5,62.75,35.25,26.75,11.25,6
-28.25,-18.75,-9.25,-24.75,53.75,19.75,23.25,-6.5,6
-28.5,-11.5,-21.0,-19.25,29.0,17.25,12.5,4.25,6
-48.0,-2.5,-14.0,-31.25,23.0,13.25,16.0,0.5,6
-46.5,-21.0,-14.0,-32.5,9.25,19.0,7.25,3.25,6
-35.75,-11.25,-23.75,-29.75,-7.5,5.75,-1.25,11.5,6
-22.75,-18.25,-26.0,-21.5,-9.0,5.0,1.75,7.5,6
-22.25,-17.25,-25.75,-22.5,-28.75,11.25,3.75,10.5,6
-21.0,-7.75,-13.25,-13.0,-62.75,6.0,4.75,9.25,6
-4.5,-2.75,-13.0,-2.25,-78.75,6.75,11.25,22.25,6
12.0,-7.25,-19.25,-13.5,-64.75,-4.25,4.75,17.75,6
20.25,8.75,-10.75,-5.5,-38.75,-0.75,19.25,23.0,6
27.75,13.0,-1.25,-5.0,22.25,6.5,31.5,36.0,6
9.75,12.0,0.75,7.25,80.75,20.75,34.25,39.0,6
-96.25,27.75,4.25,15.75,70.75,30.5,37.75,47.25,6
-107.25,21.0,12.75,14.0,53.0,37.0,36.0,41.75,6
51.0,33.25,1.25,8.25,48.75,34.75,45.0,36.0,6
106.0,28.5,5.25,8.0,40.75,34.0,36.25,24.75,6
184.75,18.25,10.5,3.25,44.75,33.75,37.0,18.5,6
207.5,17.25,2.75,9.25,40.25,41.0,37.25,18.5,6
146.0,16.5,8.5,7.75,32.0,57.5,41.25,21.75,6
91.5,13.0,-1.75,-1.0,27.25,44.5,49.25,17.25,6
0.0,6.75,1.0,11.0,36.25,40.75,41.0,10.75,6
-26.25,19.25,-1.25,4.25,45.5,38.0,41.5,16.0,6
-56.5,18.75,-7.5,-3.25,39.25,31.25,32.75,15.0,6
-56.75,12.25,-1.75,-13.75,38.75,21.0,31.5,7.0,6
-49.25,3.0,-2.5,-20.75,34.75,26.75,34.25,8.5,6
-47.25,0.0,-3.75,-20.25,34.75,20.75,24.75,13.75,6
-63.75,-0.75,-3.5,-14.25,31.75,10.5,32.0,4.75,6
-80.0,-11.25,-3.0,-22.0,29.75,17.5,23.5,1.0,6
-68.5,-11.25,2.0,-34.0,18.5,7.75,18.0,7.0,6
-74.0,-2.0,-2.5,-25.75,28.5,10.5,36.75,15.5,6
-64.5,-3.25,-4.25,-12.75,30.5,15.25,31.75,20.25,6
-62.25,-5.25,-2.0,-12.5,22.75,15.25,38.25,19.0,6
-57.5,-5.75,3.5,-23.0,32.75,15.25,44.25,29.0,6
-33.75,-6.5,-4.5,-14.75,24.25,17.0,38.25,37.75,6
-1.5,-11.25,-3.0,-10.25,26.25,21.5,35.5,28.5,6
25.0,-10.25,0.75,-1.0,18.0,19.0,33.0,13.25,6
35.0,-12.5,-4.5,-16.75,10.5,29.75,18.5,21.25,6
36.25,-7.75,-4.5,-14.75,20.25,31.0,13.0,17.25,6
27.0,-2.75,-11.75,-16.25,8.75,24.5,22.75,22.5,6
14.75,-12.0,-10.25,-15.0,12.5,28.75,26.0,32.75,6
-3.25,3.5,-15.25,-4.75,26.75,27.0,28.75,15.25,6
-20.5,-0.25,-5.25,-9.25,33.75,29.5,11.0,22.25,6
-14.25,-15.0,-15.25,-3.5,54.0,36.75,14.0,21.75,6
-14.0,-9.0,-14.5,-14.75,58.5,41.25,24.5,31.25,6
-28.0,4.25,0.75,4.0,42.5,32.5,26.0,40.75,6
-27.75,-3.25,-12.25,-4.75,43.5,20.0,22.75,21.75,6
-36.0,-9.0,-10.25,-15.75,39.25,22.5,13.75,25.0,6
-43.0,-2.5,-14.5,-11.5,17.75,2.25,20.75,22.5,6
-44.75,-3.5,-7.0,-11.0,1.0,5.0,26.0,11.25,6
-35.0,5.5,-0.75,-6.25,-19.0,15.0,34.75,15.0,6
-29.0,0.25,0.75,-0.25,-41.75,25.25,32.5,18.25,6
-22.25,4.5,-5.75,-9.5,-56.75,26.0,28.25,8.0,6
-1.5,4.75,-1.5,-18.5,-54.75,11.0,34.75,11.25,6
5.0,11.25,5.0,-10.75,-32.5,20.75,31.0,21.5,6
-0.5,9.25,-4.75,-24.0,9.5,13.25,31.25,19.5,6
8.75,11.75,-4.5,-25.0,51.75,24.5,29.25,15.75,6
10.5,26.75,-6.5,-15.25,63.5,25.75,17.25,18.25,6
15.25,16.75,-4.0,-20.25,66.75,15.0,21.25,18.0,6
31.75,15.25,-7.5,-7.5,64.75,18.5,21.0,9.75,6
22.75,10.0,-2.75,-7.25,39.75,17.0,17.75,24.75,6
19.75,15.25,-4.0,-2.25,47.0,27.5,20.25,19.75,6
29.75,15.5,0.5,2.0,37.75,30.5,18.75,16.25,6
16.5,21.75,0.5,-1.5,35.0,32.5,28.25,21.5,6
5.75,19.25,0.75,-9.25,38.75,38.0,23.0,27.75,6
9.0,17.5,-0.25,-12.0,29.75,32.5,19.75,24.75,6
8.75,22.25,-7.0,-6.5,24.5,43.0,26.0,19.75,6
-1.25,4.0,-10.75,-6.5,10.25,37.25,27.25,27.25,6
-14.0,-1.5,-13.0,-10.5,7.75,26.25,11.5,15.0,6
-11.5,-5.25,-12.75,-20.0,5.75,40.5,16.0,18.75,6
-8.5,-6.0,-7.25,-16.5,9.25,30.0,23.75,18.25,6
-18.5,0.0,-5.0,-13.5,12.0,25.5,18.75,15.0,6
-16.75,0.75,-16.0,-14.75,18.0,33.5,34.25,19.5,6
-14.0,-7.5,-7.25,-16.75,3.5,30.75,16.5,15.25,6
-21.5,-14.5,-9.25,-14.25,6.75,28.0,23.25,15.0,6
-20.75,-6.75,-12.25,-13.0,19.5,18.25,25.0,11.5,6
-15.5,10.75,-1.25,-13.0,21.0,26.5,14.0,10.0,6
-14.5,9.5,1.75,-7.25,30.5,32.5,29.5,19.5,6
-17.0,4.0,-6.0,-18.5,35.75,21.0,18.0,6.5,6
-27.0,6.25,-8.25,-24.25,26.0,24.0,17.5,-1.75,6
-19.5,1.5,-5.5,-27.0,20.0,12.0,14.5,-0.25,6
-16.75,7.25,-16.25,-22.25,20.0,7.5,14.75,-5.0,6
-17.25,1.0,-15.75,-25.5,21.5,15.25,19.5,5.5,6
-18.5,7.5,-10.75,-26.0,22.75,7.75,17.0,5.0,6
-29.0,1.0,-9.75,-18.5,19.25,4.75,12.5,-14.75,6
-18.0,-2.5,-10.0,-34.25,32.5,9.0,14.0,-4.5,6
-25.75,-3.5,-4.75,-34.25,26.5,14.5,8.5,-4.75,6
-24.0,-6.25,-8.0,-40.75,38.5,14.75,8.0,1.75,6
-20.0,8.25,-8.0,-31.75,60.75,22.75,17.75,12.0,6
-17.75,10.5,3.25,-24.5,71.0,26.5,20.75,16.75,6
-9.0,13.0,2.5,-38.5,107.5,26.0,16.0,22.0,6
-10.5,9.75,-1.5,-22.0,106.5,22.5,38.75,26.0,6
11.0,8.75,-8.75,-20.5,73.5,22.75,41.0,24.25,6
14.0,14.5,-3.75,-19.5,55.0,28.75,28.5,32.25,6
15.0,17.0,10.5,-13.5,1.75,19.0,34.25,45.75,6
9.25,15.75,1.5,-15.25,-44.75,40.0,34.0,28.5,6
-6.0,18.75,7.25,-15.5,-57.25,44.25,40.5,18.0,6
-6.75,15.25,0.75,-18.25,-99.75,36.75,29.25,21.5,6
-23.75,7.0,5.75,-6.5,-91.0,43.75,25.0,19.25,6
-8.75,4.25,10.0,-4.25,-22.0,34.0,26.25,18.5,6
-6.25,10.5,-2.0,-11.0,47.0,40.25,30.5,23.75,6
-18.5,17.75,-1.75,-4.5,75.25,36.0,39.75,14.5,6
-20.0,8.75,-3.75,-10.25,63.25,35.5,45.75,17.0,6
-20.5,6.25,-1.75,-9.25,51.25,44.5,28.0,32.75,6
-16.0,1.0,-0.75,1.0,30.0,28.75,25.0,22.0,6
-12.25,4.0,1.0,-11.5,3.5,24.0,43.75,23.5,6
-24.5,15.75,-0.5,-6.5,4.0,39.5,34.25,31.25,6
-33.75,21.0,7.5,-0.75,25.5,40.0,38.5,31.0,6
-37.75,24.5,2.5,8.25,33.5,38.5,46.25,36.5,6
-42.0,16.0,-1.25,12.25,47.25,38.5,29.0,38.25,6
-31.75,7.0,10.25,-11.0,40.75,34.25,29.5,25.75,6
-17.5,7.25,0.0,3.25,39.0,28.25,26.25,17.75,6
1.0,14.0,-12.5,2.0,50.25,24.0,19.0,18.0,6
32.75,10.0,-18.75,-3.25,46.5,26.75,33.75,25.0,6
66.5,1.75,-7.0,-2.25,41.75,19.75,25.75,29.5,6
70.5,-2.5,-22.0,-14.75,36.5,9.5,12.0,15.5,6
76.5,-1.5,-25.5,-22.5,23.5,7.0,14.75,4.75,6
66.75,-7.0,-17.25,-21.25,27.0,12.75,15.75,11.25,6
42.25,-4.75,-21.25,-8.5,23.75,10.25,5.5,3.75,6
39.5,-0.25,-6.0,-23.75,12.75,12.5,19.5,6.75,6
27.25,2.25,-27.25,-23.5,17.75,11.25,21.0,2.75,6
7.5,-0.5,-27.0,-19.25,9.25,13.0,13.5,0.75,6
15.5,-0.5,-21.75,-28.5,17.75,18.5,20.25,1.25,6
15.5,7.25,-18.0,-24.0,8.5,13.5,17.5,7.0,6
-5.75,-3.0,-4.5,-19.5,17.75,22.0,28.25,19.0,6
-13.5,-1.75,-4.25,-16.0,23.75,21.25,14.25,5.75,6
-29.25,-3.75,-3.5,-7.0,23.25,14.75,0.5,6.25,6
-38.0,-2.5,-7.5,-10.5,22.25,14.0,13.5,2.25,6
-36.25,-11.25,-5.0,-26.25,8.0,15.0,8.75,2.25,6
-42.25,-22.5,-8.25,-27.25,33.0,22.0,6.75,9.5,6
-40.75,-9.0,-10.25,-20.25,45.75,18.5,6.75,4.5,6
-34.5,-13.5,-1.5,-23.75,50.25,12.5,7.75,12.5,6
-32.5,-12.75,2.25,-32.75,47.75,14.0,11.25,3.75,6
-38.75,-15.5,-7.75,-30.5,49.0,15.0,14.0,16.5,6
-46.75,-19.0,-5.25,-29.75,43.75,5.5,11.5,12.5,6
-46.0,-19.0,-14.5,-32.0,27.25,0.75,7.25,2.25,6
-43.75,-13.25,-13.25,-36.25,22.0,-0.75,21.0,14.0,6
-37.5,-9.75,-9.5,-33.0,-17.0,3.5,18.5,15.25,6
-42.0,-11.5,-16.25,-18.75,-39.75,21.0,19.5,15.25,6
-31.75,4.25,-6.5,-15.75,-38.5,42.5,27.25,22.75,6
-22.0,8.5,3.75,-8.75,-26.75,40.25,27.25,29.0,6
-30.5,19.0,-0.75,-12.0,-15.25,33.5,29.0,26.0,6
-20.5,12.25,1.75,-15.0,2.25,33.75,19.0,28.0,6
-15.5,11.5,1.0,-5.0,17.75,36.25,24.5,32.75,6
-11.75,14.5,-5.75,-3.25,14.25,28.25,30.5,36.5,6
-21.0,14.0,8.0,-1.75,37.75,17.25,30.25,34.0,6
-25.5,21.25,0.5,0.25,44.75,27.75,30.75,20.5,6
-16.5,11.75,-3.75,1.75,48.25,22.25,24.5,14.75,6
-19.5,6.0,-6.5,-10.5,36.25,17.75,30.75,11.25,6
-16.75,2.5,-11.5,-21.0,31.5,21.0,29.0,8.75,6
-28.75,16.5,-4.75,-16.75,37.0,28.75,38.5,17.0,6
-24.0,25.75,-8.75,-3.75,25.0,24.75,38.75,8.75,6
-13.25,15.0,-3.5,0.75,24.25,31.25,31.5,9.5,6
3.5,20.25,-2.5,-5.25,23.25,34.75,36.0,18.0,6
17.0,12.25,0.0,-5.25,25.5,20.25,32.5,-1.25,6
25.25,7.0,-2.25,-11.5,25.25,19.75,34.75,10.25,6
24.0,13.75,-3.75,-14.75,27.0,29.75,36.5,20.25,6
24.0,14.0,-10.5,-8.25,31.5,29.5,34.5,11.5,6
32.75,6.75,-22.5,-15.5,34.25,17.5,22.25,16.0,6
27.25,-3.0,-19.25,-10.75,40.25,15.5,21.25,4.25,6
19.75,1.25,-9.75,-18.5,40.0,19.5,19.0,-0.25,6
12.25,2.75,-4.0,-31.5,16.25,10.25,14.5,6.5,6
0.25,2.75,-9.0,-20.75,8.25,10.25,12.5,8.25,6
-14.25,2.5,-5.25,-18.25,13.0,21.5,7.5,9.5,6
-23.25,2.0,-7.5,-21.75,12.5,17.75,10.25,14.0,6
-28.75,5.25,-1.0,-21.75,23.75,30.5,18.25,25.75,6
-22.75,8.0,-6.75,-11.75,31.25,33.25,22.75,32.0,6
-12.25,5.0,-3.0,-13.75,24.5,24.25,15.25,26.5,6
-20.25,3.25,-2.0,-19.0,15.0,11.25,15.0,29.0,6
-28.25,6.25,-17.75,-15.25,41.0,22.0,21.75,22.5,6
-29.0,5.0,0.75,-20.25,60.5,24.5,30.75,31.5,6
-17.0,5.0,12.75,-2.25,56.0,21.0,35.25,36.5,6
-6.5,15.0,20.25,10.75,66.0,46.75,40.5,35.75,6
-6.0,27.0,8.75,2.25,67.25,39.0,36.5,38.0,6
-9.25,28.75,7.0,-11.0,53.0,28.0,20.0,19.5,6
-10.0,29.0,7.5,-9.5,43.75,33.25,19.75,24.0,6
-16.5,24.5,-7.25,-8.5,14.75,34.0,24.5,26.75,6
-17.0,18.75,1.5,-11.75,-30.0,33.0,27.5,21.5,6
-12.0,18.0,-4.25,-6.25,-42.25,33.75,26.25,26.75,6
-10.25,8.75,-1.25,-8.5,-28.25,25.5,26.5,31.75,6
-0.25,13.0,-5.0,-6.75,-2.0,23.75,20.5,39.25,6
-2.75,23.75,-0.75,-12.0,31.0,35.25,24.5,31.0,6
-2.5,15.0,-5.0,-8.5,30.75,16.0,27.25,25.0,6
-4.0,11.5,-11.5,-11.75,33.5,16.25,34.0,15.75,6
0.5,6.75,-5.5,-7.75,48.5,24.5,29.75,22.25,6
12.0,15.5,-18.75,-11.5,34.75,29.25,25.0,25.0,6
20.0,9.5,-18.75,-10.0,4.75,35.25,21.75,6.5,6
15.75,3.0,-16.75,-9.75,-31.0,16.75,15.25,3.75,6
9.25,9.5,-12.0,-25.75,-26.5,23.75,31.5,14.25,6
0.0,-4.75,-11.75,-20.0,14.5,18.0,29.0,20.0,6
0.25,-2.0,-7.25,-20.0,37.75,14.75,27.25,8.0,6
-6.0,3.0,4.5,-13.75,72.5,28.5,32.0,10.5,6
-23.25,0.5,6.75,-12.0,97.75,31.75,30.25,15.0,6
-11.5,-10.25,5.5,-5.75,82.5,31.5,29.75,11.5,6
-5.5,-14.25,0.75,-19.75,50.75,19.75,25.0,11.25,6
-21.25,-19.5,-5.5,-21.75,21.5,12.0,24.75,4.25,6
-22.0,-19.0,-0.75,-17.25,18.25,21.75,26.25,11.5,6
-21.25,-6.25,-5.5,-24.25,14.5,30.25,19.75,18.25,6
-14.0,-12.5,-13.0,-35.5,1.25,32.5,18.0,3.5,6
-18.5,-12.0,-16.25,-27.0,0.75,20.75,26.75,13.25,6
-23.0,-19.0,-20.5,-21.0,-4.75,23.75,26.75,16.5,6
-18.0,-5.75,-11.25,-22.5,12.0,24.25,16.5,9.25,6
-25.5,-13.0,-13.75,-23.75,13.5,23.5,17.75,16.75,6
-20.75,-16.75,-3.5,-14.5,20.0,39.0,24.0,21.0,6
0.25,10.0,9.25,-0.5,40.75,52.75,29.75,28.25,6
-6.75,14.5,-8.25,-11.5,41.75,41.5,32.25,22.0,6
-11.25,10.25,-15.5,-9.0,31.5,34.75,29.0,19.75,6
-4.0,8.0,-13.75,2.0,23.0,30.75,40.75,16.75,6
-25.75,10.25,-13.75,-1.0,26.5,24.5,26.5,16.75,6
-30.75,6.25,0.0,-12.5,12.25,26.75,33.75,20.5,6
-35.75,3.25,-2.75,-7.0,18.75,19.25,37.5,11.25,6
-58.5,-1.25,1.75,-11.5,13.25,10.75,24.5,13.75,6
-61.25,3.25,-5.0,-13.25,0.75,8.5,33.75,21.5,6
-48.25,-12.0,-15.75,-14.25,16.25,19.25,25.0,20.25,6
-24.75,-14.0,-16.25,-15.5,7.5,15.75,25.0,4.75,6
2.25,-14.0,-22.25,-10.25,18.25,24.25,25.0,10.75,6
23.0,-15.75,-6.75,-17.75,32.75,31.25,21.5,12.75,6
38.25,-8.5,-11.5,-20.5,37.25,13.25,19.0,10.75,6
44.0,-5.0,-23.75,-23.5,55.75,9.25,8.75,10.25,6
32.5,-1.0,-21.25,-31.5,38.5,19.25,-0.5,7.0,6
34.5,-21.25,-11.5,-28.0,30.0,18.5,6.0,11.0,6
30.0,-9.0,-13.25,-22.75,27.25,26.0,7.0,7.25,6
26.25,-5.5,-13.75,-26.25,11.0,34.75,7.0,10.75,6
23.0,-5.25,-6.5,-14.25,-16.0,38.25,14.5,19.5,6
19.0,5.0,-4.25,-17.75,-47.5,25.5,7.5,16.5,6
30.25,-4.0,-5.5,-23.0,-42.25,24.25,19.0,12.75,6
33.75,3.75,-13.5,-10.5,-9.0,37.25,19.5,16.5,6
26.5,-4.0,-9.75,-14.5,13.75,24.75,15.0,2.75,6
14.0,-12.5,-6.0,-18.0,-1.75,12.5,21.25,2.0,6
11.0,-18.75,-3.75,-22.25,12.5,10.5,31.5,1.0,6
-12.75,-12.75,-9.75,-19.25,45.25,14.25,37.0,10.25,6
-16.75,1.5,0.0,-5.5,40.5,14.25,29.25,31.5,6
-16.5,2.5,-4.0,-3.25,40.0,15.25,26.75,13.0,6
-35.5,2.0,-3.0,-9.25,42.25,16.25,36.0,21.5,6
-17.75,1.0,8.0,-7.25,37.5,20.25,32.5,28.0,6
-14.75,22.75,4.75,9.25,47.0,29.5,37.5,35.75,6
-9.0,34.0,15.5,22.5,50.75,43.25,54.0,47.5,6
-12.25,32.25,2.25,24.25,40.5,34.0,44.5,40.25,6
-12.75,22.25,0.0,13.0,36.5,26.0,34.25,37.75,6
-21.5,14.25,4.25,2.75,39.25,37.25,34.75,34.0,6
-22.5,18.0,10.75,-9.75,26.5,29.5,33.75,28.5,6
-17.25,10.25,10.25,-0.5,34.75,29.0,26.5,30.0,6
-31.25,8.0,2.5,-3.0,56.5,25.25,23.5,39.0,6
-23.0,15.5,11.75,-4.5,47.0,29.0,26.0,33.25,6
-22.0,20.75,-2.5,-0.25,55.5,35.25,23.0,27.75,6
-15.75,18.75,3.25,-11.75,44.0,29.0,18.25,29.25,6
-11.5,14.25,0.0,-4.5,28.0,27.5,19.0,19.0,6
-22.25,9.75,-7.5,-8.25,36.25,27.5,11.5,14.5,6
-11.75,12.75,-11.25,-11.75,35.0,26.75,11.5,9.0,6
-12.5,14.0,-6.75,-7.0,28.5,13.25,21.0,10.5,6
-13.75,4.75,5.25,-14.25,33.25,21.5,25.0,12.0,6
-18.5,10.25,-7.25,-9.0,42.25,20.5,29.75,12.5,6
-15.25,20.0,-9.0,-15.75,26.75,19.0,25.5,20.5,6
-20.0,21.5,-12.0,-16.25,33.25,18.25,19.0,18.0,6
-21.0,19.5,-10.75,-3.75,35.5,19.5,21.5,8.75,6
-17.5,7.5,-18.0,-19.75,35.25,20.5,23.0,13.5,6
-37.25,8.0,-12.25,-7.5,28.25,11.75,33.25,19.25,6
-39.0,12.5,-8.0,-20.5,14.25,14.25,22.0,10.75,6
-44.0,6.75,-19.0,-42.0,5.25,15.25,7.25,-1.25,6
-27.25,-8.75,-21.0,-32.5,6.5,18.5,13.5,6.25,6
-6.75,-5.0,-20.5,-44.0,6.0,10.75,14.75,7.5,6
-11.25,-0.75,-21.5,-27.25,-17.25,22.5,19.5,6.75,6
6.0,-4.75,-12.0,-18.0,-34.75,27.0,14.5,21.25,6
11.25,4.0,-6.25,-29.75,-45.5,20.25,26.0,25.25,6
1.75,1.75,-11.25,-19.0,-40.25,19.75,20.75,22.0,6
4.5,-8.5,-4.25,-20.5,-33.5,13.0,9.75,13.5,6
6.25,-7.0,-8.0,-15.75,4.5,16.5,21.25,20.5,6
11.25,3.5,-7.75,-13.0,32.5,24.75,19.0,24.75,6
19.0,11.0,-8.75,-6.25,21.75,34.0,28.75,28.25,6
16.5,-1.75,-4.5,-6.5,29.25,35.0,31.5,29.75,6
-0.5,-8.0,-1.0,-17.75,30.5,26.75,26.5,17.75,6
-4.5,-10.5,-9.25,-13.75,26.5,23.75,21.5,20.5,6
-4.0,-16.75,-5.0,-22.25,17.5,20.0,23.75,6.75,6
-5.5,-9.0,-8.75,-26.0,27.0,19.75,31.5,16.25,6
9.0,-10.75,-13.0,-14.5,45.0,17.75,28.5,19.25,6
12.75,-13.25,-12.75,-17.0,44.75,22.25,21.25,22.75,6
16.0,-2.25,1.25,-23.25,26.0,26.0,16.0,16.75,6
10.25,3.0,-1.75,-31.0,21.25,24.75,22.75,10.25,6
-9.25,-6.0,-8.25,-29.5,40.5,18.5,15.25,17.0,6
-15.5,2.25,-6.5,-17.0,38.5,14.25,18.75,8.75,6
-16.5,2.5,0.75,-11.75,26.75,20.5,20.0,12.5,6
-10.5,2.75,3.0,-16.25,11.5,17.25,13.5,13.5,6
-9.75,12.0,3.25,-4.0,16.0,24.25,21.25,14.75,6
-5.0,8.5,9.5,3.25,5.25,22.75,20.75,21.5,6
3.0,12.75,-3.0,-17.75,17.75,8.75,15.5,21.0,6
-7.5,5.5,1.25,-13.25,30.75,20.75,21.25,15.0,6
1.0,4.5,3.0,-0.75,27.5,19.25,18.75,10.5,6
-5.25,4.5,10.75,-18.5,33.25,15.5,19.75,11.0,6
-22.25,12.5,14.0,-18.5,39.0,21.0,39.0,19.0,6
-12.0,4.5,0.0,-10.0,45.25,20.0,24.75,11.0,6
-17.5,6.25,4.0,-9.25,48.25,25.75,19.5,10.25,6
1.5,9.75,8.25,3.25,58.75,36.5,26.75,21.25,6
-6.0,3.5,9.75,-3.0,42.75,34.5,29.25,19.5,6
-7.25,10.75,1.25,-16.25,39.25,33.25,32.25,10.75,6
-5.5,16.75,0.25,-8.5,49.0,38.0,26.0,8.25,6
-18.0,14.25,-3.5,-19.5,36.25,16.5,22.75,10.25,6
-25.0,-2.75,-12.25,-27.75,28.75,15.0,15.25,-5.75,6
-42.5,-5.0,-5.25,-31.75,35.25,22.0,16.75,-0.75,6
-47.25,-10.5,-7.25,-33.0,21.75,13.5,18.0,9.25,6
-59.75,-5.0,0.0,-32.25,11.5,23.0,27.75,12.75,6
-36.25,18.0,4.25,-29.75,25.0,40.0,35.0,26.25,6
-15.5,10.75,1.5,-18.5,24.25,33.75,30.0,18.75,6
1.0,4.75,-9.5,-17.5,11.5,20.25,17.75,13.75,6
24.0,3.0,-13.25,-22.0,0.75,24.25,16.25,7.5,6
31.5,4.75,-12.25,-26.5,-3.0,13.25,13.75,5.0,6
32.5,4.5,-16.75,-25.0,-1.5,15.0,7.0,11.5,6
23.25,-2.0,-20.0,-33.25,4.25,7.0,9.0,8.5,6
14.25,5.5,-25.0,-27.5,1.5,1.75,4.75,-1.75,6
12.0,-7.75,-15.5,-31.75,1.5,15.25,4.75,-0.75,6
-12.75,-6.0,-20.25,-31.25,8.75,20.75,16.25,9.0,6
-17.5,2.5,-20.75,-13.5,5.25,36.25,36.5,9.75,6
-8.5,2.25,-11.25,-13.25,-1.25,43.0,22.5,21.0,6
-11.5,4.75,-9.0,-3.75,-3.5,34.75,18.5,28.5,6
-20.75,1.5,-9.25,-2.5,-14.25,32.75,34.5,22.25,6
-24.0,-2.5,-9.0,-2.25,-26.5,43.75,35.5,21.5,6
-15.25,-4.25,-7.5,-0.75,-17.75,42.75,28.75,32.75,6
-24.0,4.75,-13.5,0.5,6.25,46.25,30.75,16.25,6
-17.5,5.25,-10.0,3.0,34.25,43.25,36.25,19.75,6
-9.5,6.5,-11.75,7.25,37.5,31.25,27.5,33.75,6
-23.25,3.0,-0.75,-3.25,51.0,28.5,36.0,22.0,6
-26.25,9.5,3.25,-9.0,68.75,18.25,29.25,22.5,6
-18.75,8.5,-6.25,3.0,56.5,25.25,36.75,18.75,6
-23.75,16.0,-4.5,-1.5,42.5,26.25,47.5,23.75,6
-26.5,13.75,-6.5,-1.25,30.5,24.5,38.75,38.5,6
-8.25,10.5,-3.5,-5.0,45.25,34.5,40.5,27.25,6
-9.25,18.5,-2.75,-12.5,40.0,23.25,36.25,15.25,6
-15.0,3.75,-20.25,-25.25,25.5,4.25,37.5,13.75,6
-9.25,9.5,-8.5,-15.75,40.0,0.25,29.25,1.75,6
-14.75,-11.25,-11.5,-15.25,51.0,6.0,22.5,14.75,6
-15.25,-13.75,-24.5,-27.5,73.0,8.75,18.5,14.75,6
-16.0,-8.0,-19.5,1.5,104.0,7.25,20.0,11.0,6
-25.5,-5.75,-17.5,-12.5,126.75,29.75,37.75,25.0,6
-11.25,12.0,-8.5,-0.25,110.75,45.25,44.5,24.0,6
-14.75,5.25,-12.0,7.5,71.25,29.0,40.5,28.0,6
-28.0,-3.25,5.75,-0.5,12.0,36.0,27.5,29.5,6
-28.25,-4.5,11.25,8.0,-34.25,47.75,29.0,28.5,6
-35.75,10.75,5.25,-1.75,-51.0,32.5,16.5,23.25,6
-34.0,4.25,4.0,-5.25,-60.0,35.0,17.0,24.75,6
-26.75,-3.75,-12.0,3.75,-75.25,22.25,27.0,20.25,6
-32.75,-1.25,4.75,4.5,-86.5,28.5,12.25,18.5,6
-36.0,-3.5,2.0,-19.75,-81.0,36.5,10.0,22.25,6
-22.5,7.0,-2.25,-26.0,-44.75,24.75,6.25,23.0,6
-12.0,7.75,8.75,-18.0,1.25,41.75,19.0,22.75,6
6.0,14.5,-0.5,-20.0,24.25,33.25,22.0,24.75,6
16.0,24.5,7.5,-9.75,41.0,35.5,10.0,24.5,6
23.75,18.75,10.25,-12.75,43.5,40.25,16.25,29.0,6
39.25,14.5,9.5,-20.25,40.0,42.0,21.5,29.75,6
40.5,16.0,3.25,-15.25,31.75,34.5,29.75,23.75,6
44.75,17.0,0.5,-22.75,48.25,28.5,9.25,23.25,6
49.5,9.25,1.25,-17.5,67.75,26.75,13.75,20.5,6
50.0,14.25,-11.75,-10.75,70.75,25.75,27.75,18.5,6
33.75,9.5,0.5,-25.75,81.5,20.5,21.0,14.5,6
33.5,16.5,5.25,-24.25,64.75,10.5,21.75,10.0,6
31.25,20.75,-1.75,-31.5,50.25,9.75,16.75,1.5,6
8.25,8.75,-0.25,-33.25,66.25,16.0,28.25,2.5,6
12.25,5.0,-9.5,-24.0,53.75,20.0,31.25,16.25,6
11.75,5.75,-10.0,-20.5,37.75,11.0,18.75,12.75,6
-1.75,10.0,-6.75,-14.0,36.25,18.25,18.75,7.5,6
-6.5,-0.25,-4.75,-16.75,25.25,19.75,24.0,13.5,6
-9.75,3.5,-0.75,-9.25,12.5,19.0,22.75,5.0,6
-15.0,9.75,-8.25,-19.75,8.0,24.25,16.0,-0.25,6
-22.75,4.25,-8.5,-23.75,3.75,4.0,14.5,0.5,6
-31.25,-13.5,-8.75,-20.75,7.5,-1.5,13.25,-0.5,6
-39.5,-12.5,-16.0,-25.5,5.75,3.25,9.0,6.0,6
-35.0,-2.75,-8.0,-12.0,14.25,14.25,21.0,23.5,6
-22.0,-6.75,-12.25,-4.75,19.5,22.25,16.75,11.25,6
-21.0,-3.25,-19.25,-13.0,10.0,10.25,6.0,6.75,6
-24.25,-9.75,-13.5,-14.25,4.0,13.75,12.0,6.5,6
-17.25,-5.0,-11.75,-12.25,11.0,10.5,7.0,5.75,6
-31.75,-6.0,-21.25,-13.75,6.0,1.25,5.0,8.5,6
-35.0,-7.25,-22.75,-20.5,1.5,5.25,6.75,13.75,6
-25.0,2.0,-10.25,-32.0,12.25,13.75,18.75,17.5,6
-28.5,10.25,-4.25,-39.0,10.25,12.75,18.75,6.25,6
-27.5,13.0,-10.75,-23.75,26.25,19.25,7.25,11.5,6
-25.0,10.0,-6.75,-18.5,18.0,13.0,22.0,20.25,6
-28.25,2.75,-2.5,-24.5,17.25,9.75,26.0,13.25,6
-22.5,-12.0,-8.75,-28.75,38.5,23.5,25.5,9.5,6
-13.5,0.25,-2.0,-20.75,21.25,22.75,23.75,23.0,6
-23.0,20.25,-11.75,-11.25,20.25,28.25,32.75,25.0,6
-11.75,11.25,-13.5,-9.0,29.5,27.5,34.25,27.5,6
-5.5,10.0,-10.25,-4.5,36.5,21.5,36.5,25.0,6
-9.0,11.0,-20.0,-1.5,45.5,28.75,52.5,31.75,6
0.75,9.25,-7.75,0.0,45.0,40.75,44.25,29.75,6
1.75,19.0,-10.0,-15.25,37.25,38.5,46.5,11.5,6
-1.25,15.75,-8.25,-2.5,22.0,37.25,49.75,22.75,6
5.0,10.0,2.75,5.25,21.5,34.75,40.75,17.75,6
3.75,7.75,5.25,4.0,23.5,37.75,39.0,28.0,6
-0.25,3.5,-1.0,7.0,40.75,36.5,34.5,31.0,6
-12.5,9.5,-0.25,-16.75,46.75,26.75,29.25,9.5,6
-18.0,-0.75,-3.75,-15.5,39.25,38.0,31.25,7.25,6
-8.5,1.25,-5.5,-1.75,43.25,33.75,20.25,17.75,6
-6.0,5.25,1.25,-21.0,37.0,37.5,20.5,19.25,6
5.75,-10.75,-14.0,-32.0,35.0,33.0,24.5,19.0,6
-1.25,-17.0,-12.25,-26.75,35.5,20.75,17.0,33.25,6
-7.5,-14.75,-6.5,-20.75,35.75,25.5,18.5,22.75,6
-1.75,-11.0,-5.0,-23.25,33.75,43.0,33.0,32.0,6
6.0,9.25,11.25,-12.75,22.25,47.0,30.0,43.0,6
8.0,15.0,2.0,-13.5,16.5,24.25,20.25,31.25,6
-2.75,-7.0,-4.0,-19.0,25.75,31.75,23.5,20.75,6
-9.25,3.0,4.25,-14.75,30.25,29.5,12.25,17.75,6
-5.0,-3.25,-1.25,-21.5,33.75,23.5,29.25,19.75,6
-6.5,-2.5,-4.75,-12.25,41.5,31.75,23.5,18.25,6
-12.75,1.25,-6.0,-11.0,42.5,19.75,20.25,23.25,6
-17.25,-10.75,-6.0,-23.75,8.0,18.25,35.5,24.25,6
-33.25,3.25,-16.25,-18.5,-17.25,23.5,19.25,12.75,6
-30.0,-0.25,-23.25,-15.0,-7.5,16.5,22.25,23.5,6
-23.5,-0.5,-15.25,-7.25,5.25,11.75,18.5,16.25,6
-14.0,-7.75,-14.75,-15.5,4.75,26.25,12.75,12.75,6
4.25,-10.0,-23.75,-32.25,-10.25,20.25,28.75,8.25,6
12.5,-6.75,-18.75,-16.75,14.5,19.25,32.0,11.75,6
22.0,-11.75,-13.5,-20.0,37.75,12.75,19.5,26.0,6
24.75,1.75,-20.75,-12.0,41.5,15.75,21.0,12.0,6
22.0,4.5,-21.5,-4.0,45.75,14.75,23.75,15.75,6
12.75,10.75,-11.0,-16.0,25.5,16.75,25.75,11.5,6
-7.0,10.25,-8.75,-12.25,16.25,21.0,22.5,9.0,6
-26.0,0.5,-6.25,-10.75,4.75,17.0,25.25,10.75,6
-28.5,2.0,-7.75,-8.0,26.5,29.25,35.0,11.5,6
-36.75,-0.25,-7.5,-8.5,49.0,15.5,33.5,10.5,6
-33.5,6.5,-5.5,-4.5,46.0,12.25,26.5,13.75,6
-7.0,6.75,-11.25,1.0,45.0,17.5,25.5,19.25,6
1.75,0.25,-3.0,-3.25,33.5,15.75,29.5,13.25,6
19.0,20.0,-3.75,9.5,15.0,30.5,30.75,18.0,6
20.5,8.0,-0.75,6.0,2.75,37.0,39.5,20.25,6
13.5,19.0,-7.0,-7.75,-10.75,29.0,30.5,17.25,6
10.0,22.75,-6.25,-3.0,-45.75,31.25,23.0,6.25,6
-3.75,5.5,-3.5,-0.5,-56.5,30.25,24.5,-0.25,6
-7.75,10.75,-3.25,-2.5,-36.75,37.25,25.75,14.0,6
-15.75,7.5,7.25,-4.75,11.75,44.0,29.75,20.75,6
-10.75,17.75,9.25,-0.25,51.0,43.5,24.0,32.0,6
-17.5,9.0,4.5,7.0,58.25,39.5,30.25,23.5,6
-23.25,14.0,-1.25,-5.75,58.0,25.5,25.5,16.0,6
-16.25,11.5,10.75,-13.5,58.0,20.0,27.25,20.25,6
-26.5,6.75,11.5,-3.0,56.25,21.5,26.75,14.25,6
-24.25,11.5,5.5,-6.5,33.5,24.5,25.75,24.5,6
-33.25,6.25,13.75,-23.0,8.25,14.0,24.0,23.0,6
-47.25,11.75,-0.25,-26.25,12.5,16.25,16.25,21.0,6
-51.0,11.5,-4.0,-20.0,9.5,17.75,20.5,15.75,6
-53.25,4.25,5.75,-26.75,11.25,8.25,9.0,12.75,6
-41.5,-1.25,0.0,-33.25,17.75,16.0,11.25,8.5,6
-23.25,-5.25,-1.75,-34.5,11.5,12.25,-7.25,4.0,6
-6.25,-14.0,-2.0,-36.75,17.75,16.25,-16.5,10.25,6
-4.25,-17.5,-6.25,-43.75,20.5,6.75,3.25,2.5,6
1.25,-20.5,0.5,-42.25,23.25,16.5,2.0,4.5,6
4.5,-12.75,18.0,-27.5,28.75,28.25,12.75,7.75,6
-7.5,-4.75,11.0,-26.0,25.75,8.0,19.5,3.25,6
1.5,-4.25,7.75,-26.25,17.75,12.25,14.0,11.5,6
5.25,-1.5,11.5,-42.75,14.5,6.25,16.0,10.25,6
-0.5,-3.0,4.0,-49.75,8.5,14.25,27.0,4.75,6
-1.5,2.5,1.25,-36.5,-5.5,19.5,13.5,7.0,6
-14.5,6.0,-2.0,-43.25,-17.0,21.5,23.25,3.5,6
3.0,5.5,-12.5,-27.75,-0.75,25.0,32.0,4.5,6
19.75,4.25,-2.5,-25.0,44.5,26.0,14.25,23.5,6
15.5,10.5,9.75,-28.0,50.25,41.25,22.25,23.25,6
28.25,15.5,5.0,-8.0,54.5,25.5,32.5,26.0,6
25.25,11.5,4.25,-19.75,59.75,23.5,34.5,30.5,6
10.5,18.75,2.75,-14.0,29.0,23.0,33.0,16.25,6
-6.0,13.0,1.5,-13.25,18.5,14.25,37.5,31.0,6
-23.5,7.5,-7.75,-14.25,13.75,27.25,28.75,22.5,6
-20.0,10.0,-16.5,-2.5,8.0,31.5,29.0,21.5,6
-28.75,7.5,-14.0,-4.75,33.25,36.5,42.25,40.75,6
-18.0,22.25,-11.5,10.75,39.0,45.5,42.25,38.0,6
-11.25,14.25,-8.5,12.75,29.5,38.25,39.75,31.0,6
-15.75,5.5,-25.25,4.25,25.75,27.0,23.75,24.0,6
-15.5,25.75,-24.0,5.5,35.25,47.75,40.75,23.75,6
-26.5,13.75,-28.5,3.75,38.0,36.75,33.25,17.5,6
-22.25,-1.25,-36.0,3.0,41.5,20.5,28.0,26.75,6
-31.5,1.25,-26.5,6.5,55.75,29.5,27.5,25.0,6
-30.5,5.5,-23.75,7.5,37.75,18.25,9.25,24.5,6
-19.5,11.0,-22.5,15.75,17.75,12.0,20.5,23.25,6
-22.5,12.25,-23.75,12.75,14.5,19.75,21.75,19.0,6
-10.5,10.5,-32.75,10.25,31.75,18.0,30.25,21.0,6
-17.0,3.75,-30.0,22.5,44.5,16.25,27.75,9.25,6
-25.0,7.75,-24.75,11.0,25.25,26.5,26.25,21.5,6
-10.5,2.5,-20.25,6.0,-9.0,27.75,8.25,25.25,6
-8.0,12.25,-15.75,0.25,-27.25,21.75,6.0,24.0,6
-8.25,10.0,-22.25,0.75,-11.75,21.25,14.75,8.25,6
-11.25,-4.0,-13.75,-3.5,17.0,24.5,13.75,7.25,6
-8.75,3.5,-10.5,-9.75,58.75,29.25,26.75,21.25,6
-2.75,-1.0,-13.5,-15.25,50.75,32.0,18.5,15.0,6
-2.5,7.5,-8.5,-15.75,30.75,22.0,10.5,16.0,6
-8.25,0.75,-18.25,-16.25,30.75,30.0,10.75,16.0,6
-8.5,-11.5,-8.0,-22.25,14.75,25.75,33.0,9.5,6
-6.75,-5.25,0.5,-8.0,31.25,15.75,18.25,9.0,6
-14.5,-20.0,0.5,-16.5,24.0,22.0,25.5,8.5,6
-3.0,-5.25,-3.75,-15.0,4.25,13.75,32.25,15.0,6
-12.75,2.75,1.0,-20.0,-29.25,32.25,12.25,17.75,6
-18.25,-7.75,-3.75,-23.25,-57.25,20.75,20.75,17.25,6
-32.5,2.5,-6.25,-28.0,-40.75,17.75,10.5,15.25,6
-51.25,2.0,2.25,-33.25,-0.75,28.75,20.75,7.5,6
-56.0,-4.5,-3.25,-21.0,23.75,24.25,23.0,4.25,6
-50.25,-2.0,0.75,-19.75,12.75,30.5,22.5,14.75,6
-18.0,0.5,4.5,-15.25,31.0,30.5,37.75,39.25,6
7.25,17.75,16.0,-9.0,53.25,38.0,38.5,41.0,6
25.5,9.25,25.5,-6.75,64.0,29.75,34.0,25.25,6
39.5,0.75,10.25,-10.0,77.25,27.0,42.75,16.5,6
55.5,5.25,7.5,-11.25,68.5,17.5,38.25,15.0,6
59.0,10.5,-1.25,-22.5,63.25,3.75,27.75,14.5,6
46.0,16.0,-6.0,-15.25,80.5,18.5,41.75,17.5,6
37.25,2.5,2.5,-7.25,53.0,30.25,28.75,9.25,6
32.0,7.25,-4.25,-29.75,35.0,22.0,26.75,21.75,6
14.5,2.0,-14.0,-30.75,39.0,23.25,17.0,19.0,6
-6.5,-4.5,-9.0,-31.5,12.5,22.0,2.25,9.0,6
-17.75,2.25,-8.0,-36.75,3.0,16.0,18.25,5.0,6
-11.0,4.75,-11.75,-40.5,3.75,28.5,14.75,1.5,6
-6.25,2.0,-8.75,-37.0,10.25,10.75,20.5,19.75,6
-20.75,-3.25,-12.75,-31.25,4.0,13.5,23.5,12.75,6
-27.25,-0.5,-13.0,-32.25,1.0,24.0,15.5,10.25,6
-18.5,4.25,-9.5,-26.75,26.0,21.5,23.25,25.5,6
-14.0,15.0,-16.5,-18.0,42.5,37.25,34.0,29.75,6
-19.25,3.75,-8.0,-13.0,38.75,34.0,22.25,22.5,6
-19.0,11.25,2.5,-13.75,34.5,33.5,24.0,15.25,6
-16.0,5.25,-4.75,-9.25,40.0,31.75,31.75,9.5,6
-9.0,8.5,4.0,-9.25,30.25,35.0,21.5,-1.5,6
-15.5,21.5,0.25,-4.5,15.75,31.75,22.75,11.0,6
-20.0,16.5,3.5,-8.5,19.5,27.0,40.0,18.75,6
-14.75,37.25,7.75,6.75,26.25,29.25,46.75,1.25,6
-22.5,20.25,-2.25,3.0,24.25,28.0,39.5,6.25,6
-16.75,18.5,9.25,-2.0,12.5,38.75,34.25,17.0,6
-9.75,17.75,-4.5,-3.75,14.0,42.75,30.0,18.0,6
-7.25,6.0,0.0,-4.0,21.5,43.75,27.0,30.5,6
-3.5,3.75,-3.5,-0.5,16.75,29.5,22.75,30.25,6
-4.5,3.5,-7.0,-17.25,10.5,29.25,24.0,32.5,6
2.75,9.75,4.75,-15.25,11.25,27.25,30.5,33.75,6
8.25,5.0,6.25,-23.0,11.5,11.25,31.5,35.5,6
7.75,11.75,7.75,-3.75,20.5,19.5,34.0,47.25,6
15.0,21.25,5.0,0.0,54.75,28.75,40.5,39.0,6
18.75,10.75,2.0,-6.5,90.0,22.5,32.25,28.5,6
7.5,8.0,-6.5,-14.75,101.0,12.25,14.5,14.5,6
-10.5,6.0,-13.25,-19.75,70.25,7.5,5.5,7.0,6
-16.5,-9.0,-7.5,-14.75,9.5,17.25,-5.75,14.25,6
-18.0,0.75,-3.25,-22.25,-42.25,22.75,9.0,9.75,6
-19.75,-1.0,-9.25,-17.0,-66.5,13.0,15.25,11.5,6
-18.0,-4.25,-8.5,-29.0,-74.25,14.5,1.5,11.25,6
-25.25,-24.0,-9.0,-28.75,-41.5,10.0,16.0,6.25,6
-12.75,-12.5,-6.25,-26.5,0.5,5.5,9.5,21.0,6
-22.5,-8.75,-6.25,-31.25,45.25,11.0,9.5,13.75,6
-17.25,-15.5,-8.75,-29.25,65.25,10.25,18.0,1.75,6
-21.0,-10.0,-8.75,-19.0,73.0,23.0,14.25,1.25,6
-26.25,-14.0,-5.0,-17.5,97.5,16.75,15.0,8.75,6
-25.75,-14.0,-1.25,-25.5,81.75,12.25,26.75,7.25,6
-30.25,-8.0,-10.75,-17.75,32.75,8.5,27.0,13.5,6
-28.0,2.75,-6.75,-10.25,-42.25,11.5,17.5,15.5,6
-35.75,-24.75,-6.5,-13.0,-77.0,17.75,24.5,6.5,6
-29.25,-9.5,-6.0,-18.5,-67.5,14.5,31.5,25.75,6
-40.5,1.25,-8.75,-7.0,-40.0,16.0,29.25,19.25,6
-17.5,-12.25,-12.25,-8.0,-14.0,19.5,27.0,24.5,6
-6.75,-5.25,-7.25,-12.0,7.75,16.0,14.0,25.5,6
3.5,-7.5,-10.0,-7.75,27.25,9.5,14.25,24.0,6
13.75,-5.5,0.75,-17.25,30.25,11.5,23.25,14.0,6
0.75,-9.5,-10.25,-28.25,45.25,10.25,19.0,12.25,6
-0.25,-10.25,-12.25,-25.5,42.5,10.25,18.75,16.5,6
-9.5,2.5,-12.5,-26.75,44.0,20.25,17.75,13.0,6
-20.25,2.75,-15.25,-16.5,44.0,33.0,27.75,20.25,6
-26.5,2.5,-3.5,-8.25,45.0,28.5,33.5,19.25,6
-22.75,4.5,-12.25,-11.75,43.75,23.25,28.75,21.25,6
-25.25,7.75,-4.25,0.75,45.25,33.0,24.0,18.0,6
-13.0,10.0,-2.75,11.75,51.25,49.75,30.75,23.0,6
5.0,8.5,-7.25,1.0,34.5,31.75,26.0,11.25,6
3.75,5.25,-5.5,-9.75,26.75,19.0,17.5,-0.25,6
1.75,6.0,-14.0,-4.75,11.5,26.5,17.25,-1.25,6
10.75,9.5,-13.5,-15.5,23.5,24.5,9.75,1.5,6
11.0,3.25,-10.25,-11.0,43.5,19.5,24.0,6.75,6
-6.75,-1.25,-13.5,-13.5,40.25,21.5,29.5,3.5,6
10.5,4.25,-7.5,-14.5,40.75,23.25,23.25,13.75,6
19.0,7.5,-11.5,-4.75,34.5,20.75,34.0,11.5,6
6.5,14.0,-25.0,-13.25,18.75,19.75,27.0,11.5,6
15.75,7.75,-6.25,-11.75,25.5,20.0,26.0,14.75,6
8.75,7.5,0.25,-1.5,30.5,23.0,26.0,17.0,6
10.75,11.0,-2.75,-6.0,44.0,25.25,26.25,26.0,6
17.25,23.5,1.5,-8.25,41.0,52.75,36.75,20.25,6
-0.75,24.0,5.5,-14.75,14.0,35.25,29.5,19.75,6
-5.5,12.25,3.25,-9.25,32.0,23.0,30.5,16.5,6
-7.75,24.75,-12.75,-17.25,41.25,39.0,24.5,20.0,6
-23.25,15.25,-9.25,-28.5,31.25,16.5,22.75,10.25,6
-43.25,15.25,-9.75,-16.25,17.25,30.25,23.5,2.25,6
-35.75,14.5,-6.75,-21.25,16.25,30.0,16.75,15.0,6
-18.25,3.25,-6.25,-26.0,21.0,25.75,21.25,16.25,6
-32.0,4.25,-7.75,-20.25,26.0,31.75,17.0,11.75,6
-34.25,0.5,3.75,-16.75,14.25,26.0,19.5,13.25,6
-27.25,-2.25,-3.25,-27.25,8.0,29.25,17.0,13.0,6
-22.5,2.5,-1.5,-15.25,8.5,29.0,12.75,18.5,6
-27.25,3.25,-7.75,-14.0,11.0,32.25,19.0,20.5,6
-24.75,-2.25,-4.25,-21.25,33.75,36.75,26.5,24.0,6
-27.5,-5.0,-1.25,-9.25,40.0,40.0,26.25,27.0,6
-42.75,-2.0,1.25,-8.0,50.25,34.5,21.75,9.5,6
-50.25,12.0,0.25,-4.0,49.75,24.25,14.0,9.5,6
-51.0,8.25,-4.25,-12.0,56.5,17.5,13.0,9.75,6
-25.5,6.0,3.25,-2.25,73.25,21.0,26.75,17.5,6
-4.75,4.75,9.25,-2.0,57.0,22.75,26.75,38.5,6
22.5,1.75,6.25,-8.25,23.75,20.0,11.5,17.5,6
58.25,-4.25,0.25,-11.5,3.25,10.75,16.5,15.75,6
75.0,-6.75,9.75,-10.25,9.75,9.5,21.5,18.0,6
76.0,3.75,4.5,-15.75,-19.0,19.25,19.25,25.0,6
50.0,8.25,6.5,-20.0,-31.5,16.5,20.25,25.0,6
29.25,-3.0,-12.75,-21.0,-31.75,21.25,17.25,18.75,6
9.25,1.5,-19.5,-28.5,-26.25,21.75,23.0,27.5,6
-1.25,4.5,-11.25,-28.0,0.0,19.25,17.25,17.25,6
-10.75,2.25,-25.5,-34.5,7.0,18.25,19.25,28.75,6
-12.75,3.5,-15.0,-20.0,32.0,15.25,26.25,28.0,6
-11.5,-11.75,-8.75,-14.25,13.25,29.75,30.0,22.75,6
-18.75,-6.5,-15.5,-15.5,-13.75,22.0,20.25,17.5,6
-11.75,0.75,-5.0,-21.75,6.5,24.75,13.5,8.25,6
-20.25,0.0,1.25,-13.75,13.0,30.25,32.0,11.25,6
-21.75,3.5,-12.0,-7.75,21.75,26.75,28.75,27.25,6
-15.5,9.25,-16.5,-20.75,20.0,30.25,25.5,22.5,6
-20.25,2.5,-13.25,-16.5,2.5,32.5,32.25,8.5,6
-23.25,-15.5,-8.0,-15.0,5.75,37.0,29.75,13.75,6
-28.5,-4.5,-1.25,-21.0,29.75,21.25,25.75,6.0,6
-32.5,-13.0,4.75,-32.5,25.0,17.75,21.25,11.25,6
-30.0,-12.25,-1.25,-31.75,23.5,19.25,16.25,5.25,6
-35.25,-3.0,-14.0,-25.0,24.0,18.0,31.5,11.75,6
-27.75,-9.75,-11.0,-16.75,16.25,19.0,29.25,13.75,6
-17.25,-7.0,-5.0,-19.75,46.5,20.0,28.25,4.25,6
-22.75,1.0,-8.5,-17.5,68.0,28.75,40.25,11.0,6
-13.25,15.25,-3.25,-5.25,63.5,28.5,31.25,15.25,6
-15.75,15.25,-3.5,-9.0,49.5,29.75,25.0,17.75,6
-16.5,11.0,-6.5,-13.5,10.75,21.5,19.5,19.0,6
-2.5,2.75,-7.0,-13.5,-3.5,33.5,24.0,18.25,6
6.5,6.75,-4.75,-11.75,15.0,34.25,31.25,23.5,6
6.5,14.0,-2.5,-2.25,48.0,32.25,44.0,26.25,6
5.75,15.0,2.0,9.0,70.0,34.5,46.75,27.75,6
12.5,25.75,5.75,2.75,75.75,33.0,36.25,26.0,6
16.5,27.75,13.5,11.25,60.25,50.75,36.0,28.25,6
10.0,29.5,6.25,4.75,55.0,39.0,45.25,26.75,6
1.75,29.25,-2.0,-6.5,36.0,34.5,45.75,19.25,6
7.75,27.25,8.75,-1.25,23.0,35.25,34.0,35.25,6
4.5,14.0,15.0,3.0,13.0,37.5,27.25,31.75,6
10.0,22.5,8.75,9.25,-3.0,35.25,26.0,24.5,6
-3.5,23.0,7.0,-6.5,-12.25,32.25,26.25,23.0,6
-8.5,20.0,12.0,0.5,-16.5,36.0,31.25,15.75,6
4.0,15.75,0.0,1.5,14.0,30.75,21.25,20.25,6
-8.5,4.0,-2.25,-5.75,63.25,27.25,22.25,20.75,6
-20.0,9.5,-10.25,-3.25,71.5,17.5,26.0,15.0,6
-27.75,3.75,-14.0,-8.5,43.25,17.75,28.75,11.0,6
-18.0,9.75,-4.0,-2.75,37.0,26.0,35.25,11.5,6
-22.5,6.25,-7.75,-6.25,21.25,28.25,15.0,9.0,6
-20.5,-5.5,-11.0,-25.25,23.25,16.75,26.0,13.25,6
-17.0,-4.5,-14.25,-28.75,14.5,17.5,20.5,7.25,6
-22.5,-14.75,-22.75,-29.5,10.75,22.5,4.25,4.75,6
-29.25,-19.5,-20.5,-35.0,11.25,16.25,-3.75,16.0,6
-35.25,-10.0,-14.5,-31.75,9.25,17.5,-2.0,7.0,6
-40.25,-12.25,-9.0,-32.0,12.25,4.0,3.75,6.5,6
-30.5,-11.75,-7.25,-19.25,10.0,2.25,8.0,12.25,6
-11.5,-9.25,-8.25,-19.5,20.75,12.75,23.5,12.0,6
-11.25,-9.75,-4.0,-32.0,24.0,12.0,13.75,19.5,6
3.25,-6.5,-9.0,-34.25,38.0,7.25,4.0,10.0,6
-1.5,-3.0,-10.25,-30.0,49.0,7.5,10.5,4.75,6
3.75,-2.75,1.25,-21.5,47.0,12.0,18.0,7.75,6
2.75,-1.5,0.75,-17.5,37.75,26.5,20.5,17.25,6
-10.25,-2.0,-7.75,-13.25,18.0,22.25,28.75,15.25,6
-22.25,-7.75,-5.0,-5.5,6.5,17.25,20.25,23.5,6
-18.25,-2.75,-10.0,4.5,13.5,29.0,36.0,33.75,6
0.0,13.5,-4.25,9.0,11.5,35.5,38.75,32.0,6
-8.5,24.5,-0.5,1.75,9.5,37.0,34.5,39.5,6
4.75,14.75,3.0,-1.5,15.25,19.75,42.75,26.25,6
33.0,10.75,-1.0,13.5,18.5,36.25,41.0,32.5,6
45.5,6.0,-16.75,5.5,25.75,30.0,41.75,25.75,6
59.5,2.25,-16.5,-3.0,39.0,12.25,28.75,27.0,6
58.5,8.0,-17.25,-12.0,70.25,33.5,31.5,27.25,6
52.5,3.0,-14.25,-14.0,67.25,35.5,22.5,30.75,6
35.75,13.75,-22.0,-8.0,33.25,28.0,28.75,32.25,6
0.0,10.5,-16.25,-11.5,15.0,33.5,13.5,27.75,6
-10.5,7.75,-11.0,-10.5,14.25,31.0,11.5,22.25,6
-26.0,11.25,-25.75,-17.5,7.75,24.5,27.25,17.0,6
-18.0,7.0,-19.0,-20.5,-0.5,34.25,26.5,21.25,6
-11.5,9.75,-13.5,-15.0,-19.0,28.5,39.25,9.75,6
-30.5,10.25,-11.75,-16.0,-46.5,27.75,24.5,18.5,6
-18.0,17.5,-14.25,-8.75,-46.75,30.5,17.25,26.75,6
-22.0,0.75,-9.5,-9.75,-40.5,34.75,13.0,35.25,6
-26.75,14.75,1.5,-13.25,-5.75,27.75,22.5,30.5,6
-23.0,9.25,-5.25,-15.75,65.5,22.0,19.5,29.5,6
-27.5,-2.75,-5.0,-16.25,76.75,34.75,12.75,42.0,6
-19.25,5.5,4.25,-21.75,45.25,25.25,28.0,31.75,6
-14.0,-6.25,3.0,-23.75,36.75,24.75,15.5,22.0,6
-13.75,-13.25,2.5,-25.0,18.5,17.75,12.75,14.25,6
-17.0,-20.25,10.25,-38.5,26.0,-2.75,21.0,11.5,6
-12.25,-11.5,7.75,-45.0,5.75,10.25,18.75,6.0,6
-16.5,-29.75,14.25,-51.5,-1.5,6.25,17.75,11.0,6
-18.25,-36.5,6.25,-54.25,10.0,7.75,10.5,2.0,6
-22.5,-20.75,18.0,-50.5,-1.75,14.5,8.25,-9.75,6
-36.25,-11.25,17.75,-41.25,10.25,7.5,16.75,5.25,6
-51.5,-5.0,1.0,-39.25,29.25,15.75,12.5,9.0,6
-54.75,2.0,1.5,-32.0,51.5,7.75,17.0,7.75,6
-42.75,14.75,-7.25,-21.25,47.75,12.0,30.75,11.0,6
-25.75,23.25,-0.75,-11.0,58.5,26.75,47.75,29.25,6
-0.5,24.75,2.25,0.25,70.75,41.75,45.5,28.0,6
22.0,19.0,2.75,-13.25,64.75,27.75,25.75,11.25,6
40.0,26.0,-10.75,-12.75,76.75,19.25,31.5,19.5,6
41.5,15.0,-8.0,-11.75,81.5,27.0,31.5,20.0,6
33.25,9.5,-3.5,-12.5,68.0,22.5,37.0,16.5,6
20.75,12.5,-16.0,-18.25,29.25,25.5,41.5,13.25,6
1.0,14.0,-13.5,-20.0,19.5,24.0,31.5,12.25,6
-8.5,15.75,-17.75,-9.5,32.0,25.5,16.0,21.5,6
-8.75,12.75,-14.0,-16.75,46.0,14.25,16.5,27.75,6
-1.25,27.25,-17.75,-1.25,37.75,22.5,32.75,21.75,6
-13.75,21.75,-19.0,-3.5,-46.0,34.25,25.5,17.75,6
-23.0,13.25,-18.25,-9.5,-99.0,33.5,12.75,11.75,6
-14.25,20.5,-7.0,-5.5,-83.75,33.25,11.75,16.75,6
-19.75,4.0,-16.25,-3.0,-28.75,22.0,9.75,17.5,6
-20.5,-4.0,-26.5,-2.75,28.75,16.75,14.25,10.5,6
-21.25,7.75,-25.0,4.0,19.0,19.5,25.25,18.75,6
-27.0,13.25,-23.0,4.25,17.25,22.0,21.25,4.5,6
-15.75,11.5,-23.25,5.0,31.0,20.0,15.25,3.0,6
-20.75,1.0,-27.25,9.75,25.75,21.25,29.0,10.0,6
-19.75,9.5,-17.75,1.75,30.25,24.25,31.5,8.25,6
-18.5,14.5,-21.75,4.75,43.25,27.5,20.5,6.25,6
-27.5,-3.0,-12.75,-9.0,39.5,15.75,21.5,8.75,6
-15.75,-7.0,-14.5,-2.5,30.75,13.5,29.75,19.75,6
-12.5,-4.75,-17.75,5.5,34.0,31.0,33.75,11.0,6
-12.75,-4.0,-19.75,-7.0,33.0,16.0,12.5,5.25,6
-14.0,-10.5,-17.25,-13.25,31.5,11.25,23.75,15.25,6
-13.25,-2.0,-5.25,-11.5,21.75,18.75,29.0,21.0,6
-11.25,4.5,-13.5,-10.25,40.0,27.25,27.0,13.25,6
-6.5,2.75,-6.75,-14.25,35.75,30.25,29.5,7.75,6
-12.0,2.75,-11.75,-6.25,22.5,17.5,26.5,18.75,6
-21.0,5.75,-15.5,-18.0,28.5,38.25,40.0,23.75,6
-4.5,9.25,-4.25,-9.25,40.75,44.0,38.0,23.25,6
-7.5,1.75,-4.75,-11.0,38.25,32.0,32.25,14.25,6
-13.0,7.0,-10.5,-25.5,18.0,28.5,21.0,16.5,6
-15.75,-7.25,-7.75,-32.5,24.75,27.0,14.25,15.25,6
-12.25,-1.75,-5.0,-31.0,12.5,25.25,15.0,18.5,6
-12.5,1.0,-1.0,-21.5,8.25,33.75,28.0,20.25,6
-15.25,-3.5,-10.25,-26.25,9.25,29.25,29.25,10.25,6
-15.5,12.25,-2.5,-16.0,10.25,26.0,19.5,7.5,6
-21.75,-1.0,2.75,-17.75,-3.75,30.5,11.25,4.25,6
-14.5,2.25,-1.5,-17.5,7.0,19.0,4.0,5.0,6
-21.75,0.75,-0.25,-26.0,18.0,14.5,7.25,-1.5,6
-16.75,0.0,-1.0,-34.25,7.75,12.5,8.25,10.5,6
-10.5,-3.0,1.5,-35.0,8.0,7.0,-0.5,12.0,6
-16.0,-3.25,4.5,-36.5,19.5,-0.75,16.0,11.0,6
-6.75,4.0,4.25,-28.75,25.0,11.25,21.5,12.75,6
-3.75,-2.5,-8.5,-26.25,21.75,27.75,15.5,18.75,6
-0.25,15.5,-0.75,-9.75,36.0,26.75,15.0,32.25,6
-1.25,16.25,7.75,-7.5,39.5,20.25,3.5,23.0,6
10.5,17.0,5.25,-0.5,39.5,34.0,14.0,20.75,6
14.75,16.75,11.25,-4.0,47.0,34.0,23.75,22.75,6
8.75,19.75,5.0,3.25,46.5,31.25,28.0,39.0,6
19.5,23.75,0.0,13.75,43.5,41.25,32.75,36.25,6
11.75,11.0,13.0,-0.5,40.0,27.5,30.75,29.0,6
9.75,6.5,10.25,0.0,25.75,35.0,45.75,27.75,6
15.5,-1.5,2.5,-2.5,23.25,28.0,44.5,18.0,6
9.0,-1.75,4.25,1.5,26.25,21.25,44.0,7.0,6
1.5,-1.25,-3.5,-0.25,19.25,29.75,39.25,7.0,6
-6.0,-12.25,-8.25,-5.5,26.25,23.0,35.25,22.0,6
-4.5,-8.5,-1.75,-8.5,18.25,21.5,43.0,20.5,6
0.75,-6.0,-9.25,-10.5,25.25,23.75,42.5,13.5,6
-2.5,-1.0,-11.0,-3.5,22.25,29.5,37.0,9.25,6
1.75,15.5,-2.0,-5.5,24.0,35.0,34.25,17.25,6
6.5,16.0,-1.0,-4.25,42.0,38.0,47.5,26.5,6
-5.75,26.5,1.5,0.0,45.75,34.5,30.25,24.75,6
-6.0,14.0,1.0,-6.25,51.0,21.75,31.0,26.5,6
-16.5,9.5,5.0,-6.5,55.5,28.75,31.0,28.75,6
-23.0,13.75,-8.0,-9.5,54.25,32.0,30.25,27.0,6
-23.0,2.0,-3.0,-6.0,44.0,21.25,33.0,17.0,6
-15.25,7.5,-1.75,-13.0,69.75,17.25,16.25,1.0,6
-19.0,-10.25,-15.0,-16.5,64.0,15.75,10.5,2.75,6
-35.75,-8.0,-5.25,-12.5,74.5,17.5,5.0,-2.0,6
-39.5,7.5,-9.25,-14.5,73.75,18.0,13.0,-1.25,6
-35.0,1.5,-8.0,-8.5,41.25,23.0,13.75,-1.0,6
-26.75,-3.0,-16.75,-26.0,1.0,14.5,1.25,-5.75,6
-25.5,-0.75,-17.75,-43.5,-45.25,11.5,6.25,8.75,6
-16.75,-14.0,-18.5,-41.25,-68.25,23.25,11.75,9.75,6
-25.25,-9.0,-16.25,-39.0,-93.25,20.75,11.0,2.25,6
-35.25,-11.25,-18.75,-35.25,-98.0,16.25,13.75,14.75,6
-23.5,-22.0,-25.0,-34.5,-72.75,21.5,26.75,11.75,6
-17.0,-6.75,-6.0,-26.0,-16.25,19.25,28.5,3.25,6
1.5,-13.75,-12.5,-36.75,-4.0,7.0,23.0,14.25,6
18.0,-11.75,-6.75,-34.5,18.25,14.25,29.25,6.25,6
34.25,-11.5,-10.0,-35.25,69.0,2.75,19.75,9.25,6
41.75,-10.0,-19.25,-39.25,70.25,5.75,17.5,17.0,6
36.5,-6.0,-10.0,-19.75,52.75,11.75,20.25,14.75,6
20.0,-11.5,-11.5,-20.0,27.0,10.75,17.75,19.75,6
-5.0,5.75,-13.25,-10.25,21.25,19.0,22.75,22.5,6
-32.25,16.75,-2.0,-4.0,20.5,24.25,23.0,24.75,6
-36.75,15.0,7.75,0.0,10.75,41.5,30.5,25.5,6
-41.75,21.25,3.5,5.75,1.0,47.5,37.5,34.0,6
-40.75,17.5,-1.0,3.0,-9.5,30.75,35.5,25.25,6
-10.75,16.25,-1.75,3.5,-10.5,38.25,24.25,15.5,6
15.25,14.75,8.75,4.75,-6.5,42.75,30.75,21.25,6
40.0,21.25,0.5,15.75,-1.0,38.75,58.25,38.25,6
58.0,31.25,13.5,20.5,41.0,52.25,52.0,42.25,6
61.0,28.5,21.75,11.0,56.75,47.0,40.5,23.75,6
47.0,23.0,7.5,4.25,69.75,36.0,35.5,28.75,6
27.25,16.75,-8.75,3.5,79.75,31.75,38.5,23.5,6
20.0,16.0,-7.0,-10.75,64.0,36.0,39.75,12.0,6
10.25,8.5,5.75,-11.5,56.75,44.0,31.75,23.75,6
-4.25,7.25,3.0,-17.0,19.5,40.5,25.75,22.75,6
-21.5,5.5,7.75,-9.75,24.75,30.0,32.75,16.0,6
-25.5,-1.25,-7.25,-19.25,29.0,25.0,23.25,19.75,6
-24.0,-9.5,-11.75,-37.5,35.75,29.0,21.25,9.75,6
-25.5,-7.25,0.25,-29.0,40.5,25.5,27.75,20.0,6
-19.75,-5.0,1.75,-19.75,33.75,20.75,16.25,24.25,6
-25.75,10.0,2.5,-18.0,46.0,28.25,18.25,16.25,6
-24.5,2.25,5.25,-25.5,47.75,24.75,22.75,24.0,6
-38.5,-2.0,11.5,-8.75,48.75,30.25,26.5,19.5,6
-49.5,7.5,-2.75,-13.75,40.0,31.0,24.25,23.5,6
-39.25,-1.25,-6.0,-19.75,30.5,15.0,28.75,20.0,6
-38.0,-0.75,-5.0,-19.25,19.0,17.25,29.5,23.0,6
-38.0,-3.25,-10.25,-28.0,23.25,7.75,29.0,23.75,6
-34.0,2.5,-3.5,-24.75,20.75,19.0,28.5,13.5,6
-30.75,-1.75,-26.0,-26.25,15.0,14.25,4.5,3.0,6
-39.0,-4.5,-27.5,-29.25,6.0,2.0,6.75,-1.0,6
-27.5,-16.5,-26.75,-36.75,-6.0,9.25,3.0,1.0,6
-29.0,-18.25,-27.5,-35.25,5.25,2.5,7.25,-3.5,6
-26.25,-9.25,-19.75,-37.75,18.5,11.25,10.75,13.5,6
-18.0,-15.0,-23.25,-27.5,9.75,15.75,-0.5,5.75,6
-15.75,3.25,-24.75,-27.0,8.75,20.0,3.5,0.0,6
-18.0,-6.25,-17.25,-34.0,0.0,14.5,-0.25,-0.5,6
-7.75,-2.25,-14.75,-27.75,15.0,9.25,1.0,5.25,6
5.0,4.75,-5.0,-20.0,29.5,10.0,8.75,16.25,6
-8.5,-5.25,-2.0,-14.5,22.5,21.75,15.5,18.75,6
-0.5,13.5,-2.25,-14.5,36.75,40.75,16.25,31.5,6
-8.25,5.5,8.0,6.5,29.75,42.5,24.0,26.5,6
7.75,15.75,12.0,4.75,29.0,39.75,27.75,26.75,6
4.5,26.0,1.5,-5.25,31.75,27.5,21.75,30.75,6
-9.5,16.75,-0.25,-7.5,16.25,34.5,22.25,21.5,6
-6.25,16.0,7.25,-16.5,20.0,14.5,10.0,26.75,6
-28.0,15.5,-5.0,-19.0,15.25,11.75,8.75,11.75,6
-18.5,-0.25,-10.5,-16.75,6.75,22.75,9.25,11.5,6
-26.0,0.0,-12.0,-13.5,0.0,10.0,15.25,16.75,6
-32.25,2.5,-15.75,-6.25,-3.0,6.25,21.25,9.0,6
-18.75,-2.75,-15.0,-19.75,3.0,7.5,9.25,18.5,6
-11.75,5.5,-19.75,-14.75,9.0,12.5,15.75,17.75,6
-9.5,7.25,-16.0,-8.5,19.5,15.75,21.75,14.75,6
1.25,13.75,3.0,-21.5,20.75,14.5,17.25,13.5,6
-2.0,9.0,-13.5,-17.0,7.0,10.0,5.75,21.0,6
5.25,15.25,-7.25,-5.25,17.75,22.75,5.75,26.25,6
9.25,10.0,-6.25,-11.0,16.0,10.25,17.0,16.5,6
4.25,3.75,-10.75,-23.25,16.5,3.75,23.0,8.5,6
21.5,19.25,-2.5,-10.5,35.5,27.75,25.75,16.5,6
11.25,15.25,-8.5,-10.75,34.25,26.25,23.5,26.5,6
6.75,9.75,-1.25,-16.0,41.0,27.25,24.5,17.75,6
14.25,10.0,-2.5,-11.75,23.75,26.5,39.0,12.0,6
13.5,7.5,-1.5,-8.5,21.5,19.5,29.75,19.75,6
5.25,0.5,-2.75,-18.25,34.0,20.75,20.5,12.75,6
-11.5,0.0,-12.75,-15.5,36.5,22.5,22.0,8.5,6
-6.5,-7.0,-5.75,-14.5,50.5,28.0,22.0,22.75,6
0.0,-3.25,-7.5,-18.5,50.0,25.5,31.25,32.0,6
-7.25,0.75,-4.0,-6.5,40.75,38.25,33.5,23.0,6
-1.0,2.5,-4.25,-11.75,37.75,42.0,32.5,14.25,6
-11.0,14.0,-8.0,-11.75,47.0,34.25,25.5,22.75,6
-14.0,10.75,-10.75,-1.5,50.25,31.0,35.75,30.75,6
-3.5,12.25,-10.0,1.0,40.0,37.0,36.25,21.75,6
-5.0,7.0,-1.25,-0.5,37.75,41.0,41.25,31.25,6
-6.25,11.5,-1.0,0.25,62.0,38.0,54.0,25.75,6
5.0,20.75,14.0,-1.25,45.25,42.5,43.75,18.75,6
11.5,16.0,12.0,-12.5,-11.0,25.75,35.75,19.75,6
-3.75,11.0,-3.5,-13.5,-1.0,37.75,41.0,19.0,6
6.25,11.75,6.5,-11.0,-6.75,45.5,38.75,25.75,6
1.75,13.0,12.25,-11.5,-24.25,25.75,23.25,32.75,6
-3.25,13.25,2.5,0.0,-24.5,27.25,26.25,35.0,6
3.25,-3.5,9.75,1.0,-32.0,32.25,35.75,19.0,6
-2.0,-3.25,12.25,-6.5,-26.5,22.25,29.0,16.75,6
-1.75,1.25,-2.75,-12.75,-16.25,12.75,28.0,20.75,6
-8.5,-15.0,-5.75,-16.0,27.25,17.0,26.25,10.75,6
-17.5,-5.25,-13.5,-9.25,51.75,11.5,22.0,14.75,6
-16.25,-15.5,-14.0,-15.5,24.75,22.75,25.0,18.0,6
-21.75,-14.5,-12.5,-12.75,9.5,21.5,16.25,5.5,6
-7.75,1.75,-7.5,-13.0,5.25,13.75,14.75,20.25,6
6.75,-4.5,5.0,-18.0,-8.25,30.5,24.0,15.25,6
-8.5,3.75,-4.0,-10.0,25.75,32.5,23.5,10.0,6
-5.0,4.0,-3.75,-7.5,39.75,20.5,26.5,20.0,6
-7.25,13.25,-5.5,-9.0,45.0,11.25,33.0,18.0,6
-14.0,8.25,-11.5,-7.0,73.75,18.0,41.75,19.0,6
-19.0,11.5,-3.5,-0.25,61.75,8.0,40.5,7.25,6
-26.5,11.25,1.75,-13.0,89.75,21.25,37.25,11.25,6
-17.5,7.75,4.75,-8.5,88.25,27.5,31.75,17.0,6
-18.75,19.0,-4.25,-11.5,58.0,14.75,17.0,16.0,6
-20.75,13.5,-6.5,-21.75,67.5,18.25,10.5,24.0,6
-21.5,25.25,-8.25,-13.0,66.75,21.5,18.25,22.25,6
-26.5,6.75,-7.25,-17.25,52.25,22.75,30.0,26.5,6
-22.5,11.0,-1.5,-8.25,51.0,16.5,27.25,17.0,6
-8.5,29.25,-11.0,-8.75,49.75,29.0,19.0,14.5,6
-13.75,17.25,-4.25,-9.25,45.0,29.75,27.25,25.25,6
-39.0,20.25,14.75,-2.25,22.75,29.25,20.75,18.75,6
-35.25,24.0,3.75,-0.25,2.75,36.5,20.75,19.75,6
-24.5,22.25,1.0,13.0,-1.0,33.0,32.5,32.5,6
-17.5,33.5,4.0,-2.0,-21.25,39.25,30.0,28.5,6
-11.75,25.75,-5.0,-5.75,-17.5,43.0,22.5,18.0,6
-1.25,8.25,-1.0,-11.75,3.0,31.5,16.75,12.25,6
5.75,18.0,-8.75,-22.0,12.0,18.5,9.0,0.25,6
4.0,3.5,-16.0,-18.5,12.25,12.0,4.0,-2.5,6
-7.0,-7.0,-16.5,-34.0,5.25,0.75,1.25,-1.0,6
-9.5,-5.0,-26.5,-27.5,9.0,0.5,7.5,2.5,6
-10.0,-12.25,-27.75,-25.75,13.75,16.25,11.75,8.75,6
-10.0,-7.5,-18.75,-30.75,14.0,16.0,20.0,8.0,6
-9.0,-11.25,-27.75,-24.75,21.0,7.75,26.75,18.5,6
-18.0,-4.5,-27.0,-25.75,40.75,13.0,26.75,15.5,6
-11.25,-12.5,-17.25,-25.25,32.0,12.0,22.5,21.0,6
-24.0,-12.75,-11.5,-26.0,16.5,18.75,29.0,20.0,6
-23.0,-18.0,-15.0,-23.5,24.5,22.25,27.25,12.5,6
-13.0,-15.75,-20.25,-17.5,9.25,22.25,20.0,24.0,6
-16.25,-9.25,-17.0,-17.5,8.5,33.5,26.5,28.0,6
-22.25,-16.25,-15.0,-8.5,23.0,32.25,31.0,22.5,6
-28.75,-14.0,-16.0,-10.5,20.75,39.5,27.75,25.25,6
-29.25,-6.75,-9.75,-10.5,22.25,36.25,29.25,33.5,6
-30.5,-8.75,2.25,-1.75,17.0,33.5,27.75,27.5,6
-20.5,-9.75,-3.5,-4.75,26.0,39.5,23.0,21.0,6
-10.5,0.25,-10.5,-6.25,27.25,31.75,20.0,32.75,6
14.25,-4.0,-7.75,-14.0,19.5,33.25,11.5,27.0,6
29.0,-6.75,-11.25,-18.75,14.25,27.0,20.25,18.5,6
42.25,-16.25,-7.75,-11.25,2.25,29.0,18.5,21.5,6
48.75,-16.5,-2.5,-4.25,0.5,28.25,9.75,22.25,6
30.25,-6.0,-6.0,-11.0,9.75,34.5,21.25,17.25,6
20.25,-5.0,-4.5,-11.75,12.25,40.5,28.25,12.25,6
7.5,-9.25,-2.5,-15.0,20.25,28.5,21.0,20.5,6
-10.75,-6.0,-9.25,-16.25,35.75,35.5,19.75,31.25,6
-16.25,9.0,3.25,-1.25,23.25,27.75,33.5,31.75,6
-29.5,20.5,16.5,-4.75,37.75,28.5,39.0,27.25,6
-36.5,16.5,8.25,-1.5,40.25,31.25,34.75,21.0,6
-28.0,7.25,-1.25,-16.75,28.25,21.5,29.75,20.25,6
-22.0,13.25,5.0,-14.25,33.5,24.75,30.75,20.5,6
-20.5,14.5,2.0,-1.25,29.75,26.5,21.5,21.75,6
-13.75,14.5,4.5,-15.5,32.0,26.5,24.0,3.5,6
-4.0,14.5,0.75,-10.0,19.75,12.0,20.75,3.5,6
2.0,9.75,-13.25,-8.25,18.75,18.75,18.0,1.0,6
4.0,12.5,-5.75,-16.75,26.0,20.75,21.5,-2.25,6
12.0,3.25,-6.5,-12.75,29.0,24.0,23.5,14.75,6
14.75,7.75,-2.75,-17.75,26.75,24.5,29.75,0.5,6
10.0,6.75,-4.25,-20.0,20.75,25.25,15.25,11.25,6
-2.25,0.0,-5.75,-31.25,19.0,24.25,20.0,8.0,6
-22.25,-4.25,-16.0,-30.75,12.5,7.25,15.25,6.0,6
-23.25,-6.75,-12.5,-20.75,8.25,6.0,22.0,7.25,6
-31.25,-3.5,-7.0,-30.25,14.25,9.0,18.75,18.25,6
-27.25,-4.25,-14.5,-37.0,4.5,12.0,3.5,18.75,6
-27.25,-16.5,-8.5,-30.5,-11.25,13.5,10.25,-3.25,6
-17.75,-23.25,-12.5,-25.0,3.5,22.0,-0.5,3.75,6
-21.5,-10.0,-17.25,-37.0,31.25,11.0,15.25,-1.75,6
-34.25,-9.75,-15.25,-32.75,58.5,4.75,14.75,11.5,6
-27.75,-7.5,-23.75,-33.25,55.75,9.75,2.25,3.0,6
-39.25,1.25,-12.75,-23.75,42.0,16.75,13.5,4.0,6
-35.5,4.25,-2.0,-20.0,28.75,30.0,17.75,18.25,6
-33.5,-3.0,-4.5,-21.25,5.5,27.25,18.5,5.75,6
-33.25,-15.0,-1.0,-20.75,-14.5,30.25,13.75,8.0,6
-36.0,-2.25,4.5,-20.5,-58.0,27.5,17.25,16.75,6
-27.0,2.5,3.0,-13.25,-75.75,36.75,19.25,11.25,6
-10.5,1.25,-2.0,-14.25,-36.75,36.0,22.0,14.75,6
-1.5,2.25,6.0,-11.5,5.75,39.5,24.0,23.25,6
8.0,-2.75,-2.75,-8.0,24.0,51.0,28.75,17.25,6
17.5,-5.25,0.75,0.25,33.25,41.5,37.5,28.0,6
25.25,11.25,14.75,-3.0,35.5,54.75,47.5,38.5,6
15.0,21.0,9.25,7.75,43.5,42.0,53.25,49.25,6
13.5,4.0,-0.25,6.25,44.75,33.25,45.0,41.25,6
13.0,15.25,2.0,6.5,37.25,30.75,34.0,31.5,6
11.25,1.5,1.0,-4.25,53.75,29.25,32.25,30.5,6
7.5,-0.75,-7.75,-15.75,32.0,21.25,26.5,16.75,6
-5.0,0.0,4.25,-3.5,19.0,11.25,39.75,20.75,6
-7.75,15.0,-1.0,-14.25,23.25,28.5,44.75,17.5,6
-11.5,18.0,-8.0,-0.25,33.5,33.25,28.5,26.0,6
0.25,11.75,-7.75,-6.75,56.5,31.0,23.75,23.25,6
9.25,19.25,-2.75,-14.25,47.25,25.5,20.0,20.0,6
2.0,14.25,-2.0,-7.25,62.75,28.25,28.25,23.75,6
21.0,15.0,0.0,-9.0,51.0,30.0,26.5,25.0,6
22.75,5.25,0.0,-11.5,45.25,11.0,17.25,17.25,6
17.5,9.5,-12.5,-23.5,49.75,17.75,10.5,6.5,6
23.0,1.0,-6.25,-18.5,37.25,15.5,17.25,11.75,6
20.25,4.5,-7.5,-21.75,38.5,14.25,15.0,4.75,6
18.5,-3.5,1.5,-25.75,19.5,13.25,7.0,7.5,6
-3.0,-10.0,-6.0,-28.75,18.0,5.5,20.75,7.5,6
-20.0,-8.75,-7.0,-37.75,14.0,15.25,22.0,12.25,6
-17.0,-17.75,-3.75,-33.5,4.0,14.25,14.0,10.25,6
-9.5,2.0,-11.75,-25.0,11.75,15.0,10.25,9.5,6
-14.25,-1.25,-7.75,-30.5,20.75,16.75,10.75,8.25,6
-16.0,10.0,-10.75,-26.0,20.25,29.0,31.0,14.75,6
-9.0,15.25,-3.5,-12.75,31.0,15.75,31.75,28.5,6
-17.5,11.25,-9.25,-3.0,51.0,5.25,30.0,21.5,6
-13.0,20.25,-12.5,-17.0,29.75,20.75,15.5,24.75,6
-13.5,19.25,-3.0,-23.75,21.75,25.5,22.5,22.5,6
-15.75,23.25,-2.0,-5.0,10.75,29.75,37.0,30.0,6
-10.75,15.0,1.0,-11.75,-9.75,13.75,30.5,23.5,6
-7.75,21.25,-11.5,-6.5,-4.5,18.5,37.75,23.5,6
-15.5,18.5,-23.25,-0.25,-1.0,32.5,43.0,33.0,6
-7.75,20.75,-10.0,-5.5,25.0,33.0,48.0,26.5,6
-4.75,22.25,-10.0,1.25,26.75,39.75,33.75,23.5,6
-8.25,11.5,-3.5,-9.25,26.0,28.5,23.25,10.5,6
0.0,1.75,-7.75,-13.75,50.5,16.75,22.75,13.0,6
-11.25,0.75,-8.75,-23.25,65.25,7.5,27.5,28.5,6
-25.5,3.75,-3.0,-22.0,87.75,11.75,26.75,29.75,6
-38.25,-4.0,-7.5,-16.75,95.25,15.0,23.75,10.5,6
-46.0,2.0,-4.25,-20.0,102.25,20.75,19.0,12.75,6
-52.25,-6.25,-16.5,-15.75,77.0,21.5,15.5,5.75,6
-46.75,3.75,-2.0,-25.5,17.75,18.75,18.75,0.75,6
-24.5,1.25,-10.75,-21.25,-18.25,20.5,22.75,4.5,6
-24.0,-6.25,-9.25,-23.0,-47.5,17.5,15.75,7.25,6
2.0,5.75,-7.75,-20.25,-48.0,20.0,6.0,16.75,6
36.75,-4.75,-21.75,-23.0,-27.5,11.25,12.75,21.0,6
47.25,3.25,0.75,-23.25,-11.5,17.5,14.75,23.75,6
49.25,1.5,-1.75,-17.5,-3.5,27.75,17.75,16.75,6
46.75,3.75,-10.0,-22.25,-16.0,21.75,11.25,8.75,6
36.5,-2.75,-6.75,-17.25,-9.25,20.0,12.25,11.75,6
18.75,-4.5,-7.5,-17.0,-0.25,23.5,11.0,19.0,6
3.75,3.0,-0.75,-12.0,8.5,32.75,19.5,21.5,6
-4.0,-3.0,-4.5,-5.5,32.75,31.5,21.0,26.25,6
-9.0,4.25,-12.5,-12.75,30.75,20.5,16.0,26.5,6
-26.25,-11.25,-7.75,-14.25,22.25,24.5,25.5,25.25,6
-19.25,-0.25,-9.75,-8.0,17.5,18.0,20.0,24.25,6
-30.25,-1.0,-9.5,-4.75,39.75,29.5,21.5,29.0,6
-25.0,-11.25,-10.5,-18.25,42.75,33.25,24.25,23.25,6
-16.75,3.5,-19.5,-14.5,36.5,26.25,23.25,7.0,6
-32.75,-10.0,-7.25,-10.5,33.0,25.5,20.25,11.0,6
-32.0,0.75,-8.0,-13.75,38.25,8.5,12.75,-0.75,6
-32.25,2.75,-15.5,-12.75,45.0,8.5,18.5,-6.25,6
-15.5,-5.0,-10.5,-12.5,33.25,14.25,24.75,5.0,6
-27.25,-1.75,-7.25,-2.5,44.5,16.5,29.75,12.0,6
-28.0,8.75,7.75,2.75,44.0,24.75,41.0,30.25,6
-18.0,18.25,10.75,12.5,35.5,39.25,51.75,26.75,6
-41.0,11.5,-4.0,-0.25,12.0,35.25,36.25,18.75,6
-33.5,17.75,-3.75,-2.5,3.0,28.5,24.5,14.25,6
-38.75,8.75,-9.75,-2.5,6.75,33.75,36.75,-2.5,6
-35.5,4.5,-5.25,-6.0,12.75,37.0,36.5,-1.75,6
-29.0,11.5,2.5,-7.25,28.0,33.25,35.25,3.5,6
-26.25,5.0,0.5,-0.75,41.25,26.0,51.75,3.5,6
-14.5,10.25,-4.0,0.25,52.75,26.75,54.25,7.75,6
-4.5,-5.0,-12.25,-9.25,36.75,23.0,44.75,3.75,6
-3.25,-2.0,-10.25,-7.0,39.25,28.0,32.5,-2.5,6
5.5,4.25,-0.75,-4.75,41.75,19.75,25.5,3.5,6
17.5,-4.5,-2.75,-0.25,50.75,19.25,21.0,8.75,6
18.75,0.75,-10.0,-8.75,50.0,27.75,21.0,15.0,6
27.5,-8.5,-9.25,-18.75,39.5,31.25,29.0,7.75,6
23.0,-4.5,-3.25,-7.5,21.5,31.5,36.75,10.5,6
24.5,-0.5,-3.25,-8.75,4.5,22.75,34.5,16.0,6
21.0,-0.75,-5.25,-20.25,5.0,24.5,28.25,17.75,6
1.5,10.75,1.75,-16.25,-12.0,20.75,31.75,23.75,6
-11.25,1.5,6.5,-7.75,11.75,33.75,34.0,23.25,6
-12.75,5.5,3.5,-14.25,30.0,33.0,25.25,31.0,6
-20.25,8.25,-7.25,-17.0,34.25,26.75,28.25,22.5,6
-20.0,2.75,-3.75,-19.5,35.75,40.75,33.75,29.5,6
-17.0,10.25,-10.25,-25.5,15.5,38.5,29.0,22.0,6
-20.75,8.0,-7.75,-24.75,-10.75,35.75,40.75,21.5,6
-12.5,6.0,-6.5,-19.0,-20.25,32.5,33.5,44.0,6
-17.0,7.5,-10.0,-19.25,-9.5,24.75,21.75,35.25,6
-6.75,6.0,-3.5,-22.0,-21.0,23.0,24.5,36.25,6
-13.5,12.25,-1.75,-18.75,4.0,26.0,35.0,27.75,6
-8.75,14.75,1.25,-19.5,20.25,21.0,30.5,26.25,6
2.25,19.25,-7.75,-12.75,13.5,25.75,34.0,28.25,6
-11.25,13.5,-0.25,-10.25,31.5,42.0,47.25,34.75,6
-4.25,22.5,11.75,-7.75,40.25,39.5,41.25,45.25,6
-0.75,19.75,2.5,-3.25,52.0,39.0,38.5,23.25,6
3.25,14.75,0.25,-8.75,74.25,39.25,30.75,22.0,6
0.75,23.0,0.5,-14.25,68.25,25.0,30.5,18.75,6
-14.5,6.25,-1.5,-23.5,42.5,28.75,24.5,11.75,6
-18.5,16.75,-21.0,-16.5,40.0,22.0,23.75,20.5,6
-17.0,10.5,-11.5,-20.5,31.25,11.25,14.75,14.25,6
-20.25,2.75,-3.75,-16.75,24.0,10.0,-3.0,9.5,6
-26.75,5.25,-24.0,-12.5,13.75,3.5,-9.75,2.0,6
-11.5,9.0,-17.5,-17.75,8.5,3.0,-1.0,-7.75,6
-6.75,11.25,-18.5,-11.25,8.75,1.5,5.5,2.75,6
-27.25,3.25,-15.25,-13.5,12.0,9.0,-7.75,1.0,6
-21.0,-1.0,-17.25,-10.5,12.25,3.25,2.75,-4.5,6
-15.25,-10.5,-24.0,-26.5,-0.75,4.75,0.75,-10.0,6
-21.75,-3.25,-17.75,-27.75,-1.5,18.25,-4.0,6.5,6
-11.25,-6.5,-19.75,-17.0,1.25,19.0,14.75,5.25,6
-7.75,-9.75,-20.75,-4.0,21.5,30.5,18.25,0.75,6
-4.25,-17.0,-13.5,-10.5,53.25,18.5,26.0,16.75,6
-4.25,-20.75,-3.25,-20.75,92.5,20.0,33.0,2.25,6
-10.0,-7.75,0.5,-23.25,78.25,26.5,16.5,13.5,6
-12.0,-8.75,-4.0,-21.5,70.25,14.5,25.75,20.25,6
-17.0,7.75,-2.0,-18.0,40.75,17.0,33.75,18.75,6
-6.75,3.0,3.25,-11.25,-0.25,21.75,19.75,23.0,6
0.75,4.0,10.5,-13.25,-11.0,23.75,22.5,17.25,6
-6.5,15.25,0.5,-17.75,-45.75,31.25,12.0,26.75,6
-10.75,15.75,-0.25,-17.25,-59.0,27.0,22.5,33.75,6
-13.25,10.75,8.5,-17.5,-75.0,15.5,33.75,21.5,6
-13.25,3.25,-2.25,-17.75,-74.0,20.0,19.5,27.0,6
-19.5,14.0,-8.75,-21.0,-29.25,15.75,20.25,29.5,6
-6.75,7.75,-8.5,-24.0,16.25,17.0,23.5,26.75,6
-9.75,7.0,1.5,-23.5,34.75,23.5,16.5,35.25,6
-6.75,11.0,-0.25,-15.25,82.25,29.75,19.0,37.5,6
5.25,20.5,-2.0,-4.25,139.25,33.75,31.5,36.25,6
4.0,12.25,-4.25,1.75,123.0,23.5,23.5,21.75,6
2.5,-5.0,-8.0,-7.75,77.0,29.0,20.75,27.75,6
-8.0,1.75,-7.0,-13.0,31.5,29.25,27.0,20.25,6
-0.75,-1.75,-10.25,-13.0,3.0,30.75,10.5,-2.0,6
-1.0,4.0,-7.0,-13.5,-17.5,11.75,0.0,8.25,6
4.25,-4.5,-12.25,-12.5,-6.75,8.0,5.25,14.5,6
2.5,-19.0,-18.75,-7.0,15.25,12.25,-9.0,11.75,6
1.75,-10.75,-12.25,-7.0,33.5,4.5,-1.25,3.0,6
1.0,-7.25,2.5,-22.75,35.75,15.25,4.75,1.75,6
-1.25,-9.0,-10.0,-16.5,35.5,16.75,3.25,16.25,6
3.0,-9.75,-10.75,-19.0,28.25,18.25,12.0,21.5,6
-2.75,-8.75,-2.5,-27.5,14.75,22.0,5.75,14.0,6
-6.0,2.0,-5.25,-18.75,19.25,24.5,21.75,19.75,6
-4.0,-1.5,-1.5,-17.75,3.25,25.0,14.5,18.5,6
-8.5,-13.75,-2.0,-19.5,-15.25,20.5,19.5,24.0,6
-26.5,-6.5,-5.5,-18.5,-14.25,23.5,39.75,26.0,6
-31.25,-8.75,12.5,-14.5,8.5,27.5,34.0,20.25,6
-45.25,-1.75,13.25,-16.0,20.5,25.0,34.25,31.0,6
-60.75,-2.0,2.5,-12.75,28.25,30.0,37.5,26.75,6
-53.75,6.25,6.0,-7.25,46.75,44.25,30.25,23.5,6
-37.5,12.75,10.5,-7.25,36.75,28.75,29.75,14.75,6
-14.0,0.25,6.25,-8.25,28.5,27.0,28.25,12.5,6
7.0,6.0,-3.25,-9.5,29.0,39.5,34.0,24.0,6
32.0,9.75,-3.75,-7.25,39.5,43.75,35.75,20.5,6
55.25,-1.25,-10.75,-1.5,52.75,42.25,26.75,24.5,6
60.75,2.25,-11.25,-7.75,44.75,31.25,28.0,22.0,6
52.5,16.0,-1.25,-8.5,43.5,43.75,11.25,17.75,6
31.5,11.25,-2.0,-4.5,36.75,56.0,23.25,17.75,6
24.25,3.0,-0.25,-1.25,41.25,33.25,23.5,17.25,6
2.5,13.0,1.25,3.25,56.0,31.5,19.25,13.0,6
-11.0,16.75,-5.0,-1.25,50.0,38.75,35.0,24.25,6
2.25,16.25,2.75,8.5,59.0,40.0,25.0,32.0,6
-8.75,19.25,-0.5,4.0,43.5,39.75,36.75,15.0,6
-16.75,15.75,-10.25,-9.25,26.0,25.5,26.75,20.0,6
-15.25,18.5,-2.75,-13.75,28.75,29.75,21.5,24.75,6
-7.5,12.25,-3.0,-13.5,12.0,18.75,19.0,15.0,6
-1.5,7.75,-3.75,-16.75,-7.5,20.0,14.5,16.5,6
-11.5,4.0,-12.0,-31.5,-19.75,26.75,6.5,10.0,6
-16.75,3.0,-13.5,-29.25,-20.0,8.0,5.25,13.75,6
-24.25,6.0,-12.5,-23.25,8.0,2.5,24.0,14.75,6
-22.25,13.75,-3.5,-27.25,17.75,16.75,21.75,16.0,6
-22.25,7.75,-1.25,-15.5,15.0,23.25,31.0,20.25,6
-29.75,3.5,-1.5,-14.25,7.75,14.0,38.5,10.5,6
-20.25,10.5,-5.25,-13.75,-3.75,29.5,36.0,19.5,6
-13.25,-1.25,-18.0,-5.5,15.5,25.5,43.25,17.0,6
-21.75,-3.25,-17.25,-20.25,35.25,19.0,37.5,7.0,6
-16.5,0.75,-9.5,-10.25,50.5,26.5,38.5,21.5,6
-3.25,-2.0,-14.25,-10.25,34.75,22.5,44.0,26.0,6
-1.5,6.5,-8.5,-14.0,25.5,20.5,26.5,17.75,6
1.0,7.5,-2.0,-21.0,41.5,9.25,20.5,17.75,6
-0.25,-10.75,-3.25,-26.0,18.0,7.0,23.0,23.5,6
0.75,-5.25,-5.75,-16.0,7.25,8.0,10.75,14.5,6
-9.0,-2.0,-19.0,-20.0,14.75,9.25,12.5,12.0,6
-22.0,-14.25,-6.0,-24.0,24.0,7.25,20.0,20.0,6
-6.75,-16.75,0.25,-26.0,21.0,11.5,23.75,23.5,6
-0.75,-13.75,1.5,-27.25,18.25,16.5,26.5,21.0,6
-1.75,-12.75,1.75,-33.0,13.25,11.5,21.5,5.0,6
-1.75,-14.0,-11.0,-34.75,15.25,9.25,13.5,8.0,6
-7.5,1.0,-11.5,-36.75,23.5,8.75,16.75,17.5,6
-7.25,-7.0,-18.75,-31.0,13.5,10.25,21.0,15.5,6
-16.5,-7.25,-16.25,-18.5,17.0,18.25,12.25,16.0,6
-18.25,-1.25,-11.25,-17.5,17.5,19.25,17.5,11.25,6
-3.75,4.5,1.75,-23.75,23.0,37.75,38.75,26.75,6
-4.0,21.75,4.75,-10.0,41.0,43.5,40.75,19.75,6
3.75,17.75,2.25,-3.75,43.25,38.5,37.0,16.5,6
4.5,13.25,-4.25,-8.25,35.25,35.25,35.25,31.0,6
-10.5,19.75,-8.75,-1.25,34.25,36.0,37.75,21.75,6
-17.75,20.25,-6.75,-1.75,43.5,26.25,38.5,17.5,6
-21.0,15.75,-6.5,-9.5,44.25,18.25,37.0,16.5,6
-17.0,13.5,2.25,-1.5,53.5,24.25,33.25,10.5,6
-19.0,13.25,-13.5,0.0,70.25,34.0,27.75,9.5,6
-24.0,3.25,-14.75,-20.5,68.25,33.25,38.5,9.25,6
-14.75,1.25,-18.25,-17.75,67.0,25.0,33.75,1.0,6
-16.25,-4.5,-11.5,-16.5,40.0,27.75,31.75,2.75,6
-15.5,-1.25,-4.25,-15.5,2.5,27.5,31.25,14.5,6
-2.5,19.5,-1.5,-14.75,-9.5,31.75,30.5,16.75,6
-5.75,9.0,-3.0,-13.5,-35.75,25.75,38.75,22.75,6
-17.5,8.5,-9.0,-15.5,-48.25,29.0,28.75,17.75,6
-19.25,13.5,-1.75,-14.75,-48.75,32.25,21.0,18.75,6
-24.25,2.0,-8.5,-13.5,-40.0,23.25,27.75,23.0,6
-20.25,2.75,3.5,-9.25,-17.25,29.25,34.75,12.0,6
-13.75,15.75,-4.5,-2.5,-14.25,36.25,27.75,11.0,6
-19.0,21.0,-8.75,-7.0,20.75,35.5,36.0,22.75,6
-20.25,18.25,0.25,2.75,80.25,34.25,29.75,19.5,6
-18.0,9.0,-3.0,-9.25,72.0,28.25,10.0,7.5,6
-14.75,12.25,1.0,-6.0,10.0,27.0,11.25,10.25,6
-17.25,6.0,-3.25,-1.25,12.5,35.25,12.75,14.25,6
-22.0,1.5,3.0,-5.0,40.0,33.25,13.25,23.0,6
-18.0,3.5,-7.25,-4.75,46.0,27.5,22.25,29.5,6
-8.25,-15.25,-4.0,-8.25,72.75,15.75,24.75,34.5,6
-8.25,-9.5,-5.25,-4.25,75.5,10.0,18.75,23.25,6
1.0,-12.25,-16.25,-7.25,81.5,17.0,26.75,14.75,6
-3.25,-5.75,-15.5,-5.0,81.25,17.0,25.75,23.25,6
-9.25,-11.5,-8.5,-22.0,74.25,16.25,19.25,17.75,6
-5.0,-9.0,-11.5,-17.75,59.5,22.25,25.75,28.75,6
-4.5,12.25,-8.25,2.25,34.5,37.0,39.0,36.5,6
4.5,12.0,6.0,6.75,11.5,30.0,41.25,37.5,6
2.0,11.25,-10.0,2.5,-23.0,28.75,25.0,27.75,6
1.5,-3.25,-2.5,-1.75,-36.5,39.75,18.75,5.75,6
-6.75,4.5,-4.75,-7.0,-15.5,30.75,21.5,3.75,6
-10.5,12.25,-13.25,-14.0,7.5,20.25,14.5,2.25,6
-18.25,7.0,-4.75,-20.25,10.5,23.75,9.0,3.25,6
-32.75,9.0,-17.0,-27.0,1.75,21.25,4.5,8.5,6
-50.5,8.25,-14.5,-26.0,-1.75,10.75,-8.75,-1.5,6
-61.75,12.75,-10.5,-24.25,-17.5,14.75,0.5,-1.25,6
-57.5,21.0,-10.75,-14.25,4.75,27.0,11.25,10.25,6
-58.25,16.0,-13.0,-29.25,14.25,22.0,14.25,5.0,6
-44.0,-2.75,-10.0,-36.25,-0.25,12.75,20.5,16.0,6
-26.5,0.75,-20.0,-41.5,12.0,-1.75,13.0,1.5,6
13.75,13.5,-21.75,-50.0,-6.25,1.25,1.0,-1.25,6
48.5,10.25,-14.0,-44.5,-1.75,4.75,10.0,7.75,6
70.75,-0.25,-9.25,-38.25,9.25,1.75,20.5,4.5,6
71.25,-5.25,-11.25,-33.25,9.25,12.75,27.25,19.25,6
61.0,-3.75,-14.5,-40.25,9.25,11.25,28.25,17.0,6
41.0,-4.0,-3.25,-35.75,9.25,11.5,24.75,18.0,6
16.25,0.0,-3.75,-36.75,13.75,16.5,30.25,18.25,6
8.0,-1.75,-3.25,-36.0,24.0,11.75,35.25,22.0,6
6.25,9.5,-9.0,-22.75,48.0,20.0,40.0,19.25,6
1.0,15.0,-11.0,-6.75,49.5,29.0,47.75,27.75,6
-10.0,10.5,-1.0,-6.25,50.75,31.5,37.0,35.25,6
-14.25,22.25,5.25,-8.5,52.75,29.25,25.25,18.5,6
-18.0,24.75,-2.25,1.5,54.5,32.5,34.25,19.0,6
-18.0,20.0,1.5,1.25,45.75,41.0,41.75,20.5,6
-27.25,15.25,6.0,0.5,41.0,36.5,38.5,22.25,6
-39.25,18.25,-3.75,2.75,19.0,42.75,26.75,26.75,6
-30.25,10.0,2.0,4.25,-1.75,35.25,24.25,28.0,6
-37.0,9.0,2.0,2.0,16.5,40.25,36.0,39.5,6
-31.25,15.75,8.25,5.25,13.5,59.5,38.75,39.75,6
-11.25,8.75,6.0,13.0,35.25,54.5,26.75,29.5,6
-7.5,10.25,6.0,1.25,54.25,52.25,26.75,30.25,6
-0.5,17.5,5.75,3.0,38.25,42.5,27.75,27.0,6
-2.5,18.0,3.5,9.25,32.5,35.0,17.0,16.25,6
8.25,7.5,16.5,-6.5,46.25,40.5,11.75,12.0,6
14.5,1.75,-5.0,-1.75,50.25,36.5,23.5,11.75,6
11.0,-2.5,-3.5,-1.5,43.0,23.5,18.75,14.5,6
7.0,-8.75,0.25,-12.5,39.25,26.0,20.25,3.0,6
-4.0,-18.0,-19.25,-14.25,50.75,9.5,21.75,-1.75,6
-9.75,-7.5,-14.0,-5.0,65.0,0.0,17.75,2.75,6
-17.25,-6.25,-6.0,-19.75,36.25,11.75,31.0,10.0,6
-25.25,-4.5,-10.25,-23.5,5.75,1.75,24.5,3.25,6
-29.0,5.25,-5.25,-18.0,-4.5,12.75,30.0,11.0,6
-34.0,-7.5,-8.25,-28.75,-17.75,22.5,24.5,12.75,6
-27.5,-8.0,-9.75,-16.5,-26.25,16.5,18.5,11.75,6
-16.75,-4.0,-1.25,-3.5,-34.5,23.25,22.0,15.5,6
-19.5,-3.75,-10.25,-4.0,-41.25,20.0,22.0,12.75,6
-8.25,4.25,-10.0,-11.25,-33.0,15.0,30.0,20.5,6
-11.25,-11.0,-16.5,-9.5,-8.75,6.25,37.0,26.5,6
-4.0,-4.0,-9.5,-22.25,14.5,6.5,31.25,28.0,6
-7.25,5.0,1.0,-25.5,40.0,7.75,27.75,14.25,6
-17.0,-5.0,-2.25,-14.25,43.5,5.0,25.25,17.25,6
-14.75,-6.0,-19.0,-18.0,35.75,5.5,19.5,27.75,6
-22.25,-9.75,-16.0,-22.0,36.5,1.5,21.0,5.5,6
-10.75,-7.25,-8.25,-15.25,27.25,10.25,21.25,10.0,6
-17.5,-3.75,-10.0,-12.75,51.0,8.75,5.75,19.75,6
-9.5,-4.75,-5.5,-9.0,73.75,11.25,10.25,16.75,6
-13.75,1.5,-14.5,-3.0,59.5,25.25,23.5,15.25,6
-11.0,-6.0,-2.5,-8.75,45.75,25.75,16.75,14.25,6
-5.0,11.0,-7.5,-6.0,26.75,26.75,9.25,18.0,6
-5.75,29.25,-6.75,-3.25,4.5,31.5,26.25,23.25,6
-0.5,24.25,-2.0,2.0,-16.75,41.0,42.0,21.5,6
6.25,17.25,-0.5,-3.25,-55.75,41.5,34.5,6.75,6
4.0,12.25,5.75,-13.5,-52.0,37.25,42.0,18.25,6
-11.5,16.5,8.75,-9.25,-36.5,40.25,34.5,14.5,6
-1.0,11.25,3.25,-4.5,-8.0,29.75,34.75,17.75,6
-10.0,6.75,8.75,1.5,70.0,27.0,40.75,25.0,6
-17.5,8.75,16.25,-6.25,142.25,26.75,31.0,10.25,6
-17.0,10.25,9.75,-21.5,153.0,30.75,20.75,18.5,6
-16.5,-5.25,5.25,-21.5,89.5,31.25,23.25,7.0,6
-11.5,6.25,2.0,-17.0,32.25,19.75,30.75,8.5,6
-16.5,2.0,3.5,-15.0,-4.0,15.25,37.25,2.0,6
-9.75,-10.0,-1.5,-11.25,-11.25,20.0,34.5,2.25,6
0.5,2.75,3.25,-19.5,0.0,24.75,29.5,4.25,6
10.0,1.75,2.25,-26.25,10.0,19.0,24.75,-0.75,6
16.5,9.5,-6.0,-29.5,30.5,14.5,16.5,5.25,6
17.5,-8.75,-4.75,-26.5,22.0,19.0,14.5,-3.25,6
19.25,-0.25,-7.5,-29.25,20.5,27.0,19.5,5.5,6
19.0,5.75,-12.25,-34.25,24.5,27.25,20.75,11.25,6
-1.0,5.0,-6.25,-30.5,24.0,22.5,12.75,8.5,6
-15.75,7.5,-5.0,-33.25,22.5,17.25,-2.25,14.75,6
-16.75,3.25,-6.25,-28.0,14.5,14.5,-0.75,8.0,6
-24.5,3.25,-8.75,-20.75,17.25,9.25,14.75,11.25,6
-24.5,-5.25,-18.25,-20.25,20.0,15.0,7.5,18.25,6
-21.75,6.75,-17.0,-25.25,28.0,23.0,-1.75,21.0,6
-19.25,4.25,-12.25,-24.75,39.5,9.75,12.25,29.75,6
-28.25,2.75,-9.0,-19.25,38.5,24.5,18.0,31.25,6
-29.25,10.25,-10.75,-21.5,22.25,30.0,22.5,34.0,6
-19.0,13.0,-2.75,-15.75,19.5,11.25,18.25,36.0,6
-29.5,1.5,-6.0,-16.0,27.75,18.25,6.75,23.0,6
-25.75,-0.5,-13.25,-25.5,22.75,13.5,2.0,29.75,6
-0.75,15.5,-8.75,-24.25,14.25,20.5,13.0,30.75,6
7.0,0.5,-10.25,-2.75,17.0,38.0,26.75,39.5,6
3.25,10.25,7.0,1.75,21.5,37.5,31.25,50.5,6
16.5,23.75,5.0,-6.75,30.0,40.5,41.0,35.75,6
15.25,7.0,-12.0,-6.5,22.75,33.75,33.25,38.75,6
6.75,12.0,-0.5,-17.25,27.25,28.75,29.5,37.75,6
6.75,13.0,-4.75,-9.75,32.75,19.75,29.75,35.25,6
10.25,5.75,-15.5,-14.0,45.75,34.25,23.5,19.0,6
3.5,3.5,-7.75,-12.25,74.0,37.75,26.5,19.0,6
-0.75,-2.0,-13.75,-2.75,87.25,28.0,23.0,22.5,6
-0.25,1.0,-11.75,-10.5,75.0,20.75,29.5,15.75,6
-13.75,8.75,-15.75,3.5,59.0,17.25,35.25,22.5,6
-23.75,5.25,-19.0,-8.5,60.25,31.75,35.25,18.5,6
-37.25,7.0,-7.75,-10.25,10.0,28.5,30.25,19.5,6
-57.25,12.75,-7.25,-7.25,-32.0,28.75,28.75,9.0,6
-55.75,2.5,-8.5,-9.25,-77.25,36.25,24.5,4.0,6
-40.5,-0.25,-16.0,-12.25,-98.0,40.25,25.0,10.75,6
-27.5,16.5,-16.0,-18.5,-70.75,26.75,24.25,8.75,6
-4.75,10.0,-16.75,-11.75,-47.0,16.0,20.75,8.25,6
16.5,7.5,-16.25,-18.75,-4.5,30.5,21.25,19.75,6
47.0,6.5,-8.5,-12.5,25.25,16.5,18.75,23.0,6
44.75,-1.25,-13.0,-17.25,45.75,33.75,15.75,4.0,6
36.0,-7.25,-21.25,-28.25,53.25,29.25,14.5,7.0,6
20.5,-10.0,-13.25,-21.25,66.25,24.25,28.5,25.0,6
-5.25,-1.0,-15.25,-26.0,64.75,26.75,23.75,14.75,6
-11.75,13.0,-19.5,-25.25,45.75,17.5,28.25,11.75,6
-21.5,17.0,-17.75,-20.75,43.5,28.0,31.5,14.25,6
-12.0,-0.25,-8.5,-17.25,30.75,23.75,15.5,12.0,6
-23.5,4.0,-11.5,-32.0,32.0,27.25,18.0,13.25,6
-27.25,9.75,-19.0,-16.75,32.0,24.25,7.5,6.25,6
-24.5,-4.25,-11.75,-17.5,18.25,17.25,7.75,17.25,6
-41.75,-4.0,-17.25,-32.75,0.25,18.75,13.25,16.75,6
-21.0,-5.0,-11.75,-16.0,4.5,28.25,12.25,17.75,6
-13.25,4.0,3.75,-16.5,18.75,38.75,21.25,33.75,6
-12.25,20.25,-4.5,1.75,27.75,48.75,37.0,38.5,6
-3.25,25.75,-4.5,3.75,53.25,49.25,51.25,28.75,6
-8.75,16.5,11.25,-10.25,41.0,24.75,43.75,16.0,6
-6.25,15.0,-1.5,-11.5,40.25,33.75,29.25,20.25,6
-13.25,2.5,0.75,-14.5,37.25,24.75,26.25,11.75,6
-22.5,-6.0,8.0,-8.25,19.5,24.75,41.75,13.0,6
-14.25,3.25,-8.0,-7.5,37.5,34.25,31.25,10.0,6
-17.5,0.0,5.0,-5.75,44.25,23.75,34.5,8.0,6
-13.0,-3.25,0.25,-13.25,44.75,28.5,27.75,15.25,6
-4.75,-12.25,-12.5,-14.5,38.0,17.5,22.5,7.25,6
-9.25,-11.25,-2.5,-19.75,1.0,19.75,39.5,21.75,6
-7.0,-0.5,0.25,-13.25,-27.25,28.5,21.0,19.25,6
-14.75,-11.75,-3.0,-6.5,-4.0,28.75,24.75,18.5,6
-20.25,-4.75,-10.5,-9.5,1.5,21.25,18.5,18.25,6
-5.0,4.25,-5.25,-5.5,17.75,21.75,19.0,8.75,6
-0.5,-2.0,-4.0,-13.0,28.0,16.75,27.5,8.0,6
-11.25,-6.0,-5.75,-15.75,12.5,17.25,24.5,16.0,6
-32.75,-2.0,-5.5,-5.5,5.5,22.5,23.0,14.5,6
-25.75,1.0,-10.0,-17.0,4.75,16.25,23.25,24.5,6
-11.25,2.75,8.25,-10.75,41.5,34.0,30.0,22.75,6
-6.5,4.75,-0.5,4.25,46.25,23.0,19.75,16.25,6
12.0,-13.5,-5.25,-9.5,52.75,17.5,27.75,20.5,6
9.0,-7.5,-9.25,-2.75,51.5,29.75,29.75,12.75,6
9.25,-10.0,-16.75,-11.75,42.5,25.25,13.25,9.0,6
6.25,-19.0,-2.25,-18.0,42.75,11.0,20.5,8.0,6
-6.0,-1.5,-6.0,-18.0,23.5,4.25,18.25,4.5,6
6.75,1.5,-9.5,-30.0,27.25,8.0,14.0,0.0,6
11.75,4.75,-9.75,-17.75,15.75,4.25,12.25,11.5,6
29.5,6.25,-2.5,-18.25,11.25,12.0,5.0,16.0,6
46.5,9.5,-4.25,-23.0,14.25,15.75,11.75,7.5,6
45.5,6.75,-4.25,-27.25,10.25,10.5,16.75,17.0,6
50.5,8.75,6.75,-29.0,26.25,12.75,25.0,17.25,6
47.25,8.0,-0.5,-14.5,31.5,24.5,38.75,24.0,6
39.75,17.0,18.5,-1.0,39.25,27.75,37.0,27.25,6
13.75,19.5,19.0,-10.75,15.0,24.0,31.25,15.75,6
-2.5,13.0,3.0,-9.0,10.5,22.0,19.5,11.0,6
-13.25,13.25,5.75,4.75,18.75,27.25,23.0,16.25,6
-32.0,1.75,-1.0,-4.5,13.75,24.0,15.25,13.75,6
-42.75,11.25,-5.75,-11.75,19.25,18.5,15.0,8.0,6
-55.0,-1.5,-4.0,-7.5,4.0,31.75,29.75,15.0,6
-49.75,-2.25,4.0,-10.0,6.75,26.25,15.5,9.5,6
-43.0,9.75,-0.75,-13.75,7.5,27.75,18.0,15.0,6
-41.25,1.75,-1.25,-21.0,22.75,27.5,8.75,14.5,6
-26.25,13.0,-2.5,-23.25,69.5,30.75,19.25,24.0,6
-15.0,15.0,-2.25,-17.0,56.25,40.25,26.0,27.5,6
-22.0,22.5,0.0,-13.25,22.75,33.25,14.0,20.0,6
-20.5,27.25,-10.25,-14.75,21.75,31.75,23.0,31.5,6
-17.5,9.75,-5.25,-14.25,7.25,32.75,13.5,23.75,6
-13.25,14.5,-6.5,-7.25,-2.25,33.25,26.5,27.5,6
-17.0,15.0,-10.25,5.5,4.5,27.25,34.75,22.0,6
-14.5,-0.25,-3.25,-2.25,18.25,21.0,18.5,10.5,6
-11.25,-1.25,-20.5,-17.25,41.25,24.75,22.75,18.25,6
-15.25,-8.0,-22.5,-7.0,29.5,17.0,33.25,15.5,6
-4.5,-0.5,-18.25,-2.0,26.75,19.25,32.25,5.75,6
-10.0,-0.75,-11.75,-15.25,33.25,33.25,32.0,12.75,6
-1.5,10.75,2.0,-5.75,25.75,24.0,26.75,16.75,6
-7.0,15.0,5.25,-10.0,25.5,25.25,25.0,20.5,6
-5.75,14.75,1.0,-10.5,16.5,28.5,34.0,20.5,6
-11.25,16.75,5.25,-0.25,5.25,23.5,39.75,15.75,6
-22.5,5.75,1.75,-3.75,-1.25,31.25,39.75,22.0,6
-17.0,0.5,3.75,12.25,7.75,33.5,33.5,20.5,6
-7.75,-5.75,5.0,6.75,19.25,32.75,35.5,18.5,6
-5.5,2.75,-6.25,-6.0,48.75,25.75,25.75,27.0,6
-13.75,6.5,2.25,-7.25,62.75,32.0,24.25,27.0,6
-9.25,13.0,-2.5,-15.25,47.5,50.25,29.5,32.25,6
-6.75,7.75,6.25,-9.25,44.0,44.0,18.75,34.75,6
-20.25,8.75,3.25,-9.75,36.5,30.0,18.75,14.25,6
-49.5,7.5,-4.0,-24.75,23.25,26.25,19.0,8.5,6
-50.25,5.0,-3.0,-18.0,23.75,26.75,18.5,18.0,6
-52.75,-3.0,-3.5,-23.25,25.5,27.25,14.75,11.5,6
-49.25,-5.75,-3.75,-25.25,13.5,17.75,15.75,11.0,6
-30.25,-0.5,-10.25,-17.5,23.0,24.75,29.75,23.5,6
-12.0,-5.25,-10.5,-17.0,34.5,26.0,27.75,13.75,6
4.5,-12.5,-18.75,-10.5,40.25,17.5,33.75,22.0,6
21.75,-10.25,-13.5,-16.5,62.5,32.0,34.0,22.75,6
43.75,11.25,-4.0,-17.5,83.75,23.5,33.0,17.0,6
50.0,2.5,-1.25,-16.25,77.75,16.5,31.5,22.0,6
52.0,5.25,-2.25,-16.5,59.75,33.25,26.5,23.25,6
41.25,-3.5,-8.0,-23.0,32.75,24.25,21.75,28.0,6
25.5,-10.75,-5.75,-21.75,10.0,23.75,23.75,15.25,6
5.0,-4.25,-7.5,-34.0,-48.75,30.25,26.0,11.0,6
-4.5,-5.0,-11.0,-41.5,-96.0,15.75,25.5,12.75,6
-7.0,2.75,-10.0,-21.5,-86.75,11.5,32.0,17.5,6
-11.75,-12.0,-3.0,-24.75,-67.25,13.0,32.5,10.25,6
-23.25,-9.5,-14.5,-27.0,-29.5,10.75,29.0,10.0,6
-21.25,-10.5,-16.25,-34.0,19.25,16.25,22.25,14.75,6
-21.75,-11.25,-7.75,-28.25,34.5,10.0,28.25,10.0,6
-20.75,2.0,-13.5,-27.0,33.5,8.75,27.0,9.75,6
-20.75,3.75,-10.25,-25.5,31.25,3.25,24.25,11.0,6
-18.0,3.75,-21.0,-14.5,10.5,6.75,22.5,16.5,6
-11.25,1.0,-23.75,-19.25,-8.25,11.25,26.25,21.5,6
-26.5,7.75,-14.75,-10.75,-8.75,14.5,21.25,24.5,6
-15.75,21.25,-11.0,-10.25,14.0,17.5,19.0,21.5,6
-22.25,18.75,-9.0,-21.5,15.75,8.0,16.25,19.25,6
-23.5,11.5,-6.75,-24.75,15.0,11.75,20.5,24.0,6
-20.5,13.75,-4.0,-16.75,37.0,22.75,39.0,36.0,6
-20.25,18.5,-3.75,-14.0,62.5,35.75,32.5,43.75,6
-10.25,25.0,-0.75,-5.25,77.75,38.75,40.75,31.0,6
-10.0,15.75,-8.5,-3.5,87.0,32.75,38.0,23.25,6
-9.5,18.0,-12.25,-11.25,97.5,31.0,35.5,12.25,6
-19.25,11.75,-15.5,-7.0,68.75,24.0,24.25,7.0,6
-21.75,-0.5,-15.25,-2.25,44.5,32.5,29.75,17.25,6
-30.75,7.25,-8.5,-4.75,44.25,38.75,31.5,12.0,6
-20.25,7.0,-15.0,-6.75,30.5,29.25,28.25,8.5,6
-23.5,4.25,-13.25,-18.0,39.25,33.0,31.25,13.5,6
-22.5,-8.75,-4.5,-12.0,42.75,25.5,25.75,16.25,6
-8.75,-3.25,-5.5,-3.75,53.5,14.5,24.75,13.25,6
-16.5,-8.5,-5.5,-22.0,53.5,14.25,9.75,6.5,6
-11.25,-10.75,-18.0,-12.0,30.25,12.25,9.25,9.0,6
-4.25,-8.5,-24.75,-19.75,18.0,9.0,-2.5,-0.25,6
0.5,-12.25,-19.25,-29.5,8.75,14.5,-7.75,-1.5,6
-7.0,2.5,-3.25,-25.25,0.25,25.0,9.25,11.0,6
-6.5,-0.5,-6.25,-28.75,-15.75,7.0,1.0,12.5,6
-13.25,5.0,-6.5,-14.75,-21.0,8.25,2.75,3.25,6
-13.25,12.75,6.0,-28.0,-25.5,21.25,15.75,13.25,6
-7.5,9.0,-2.0,-21.0,-24.5,14.0,9.25,21.5,6
6.0,9.25,-6.0,-19.75,7.75,23.75,7.5,21.5,6
12.25,5.25,-1.0,-26.5,15.75,24.5,13.0,21.25,6
29.0,7.5,1.25,-13.5,24.75,21.5,7.5,20.0,6
39.25,-11.75,-0.25,-15.75,20.25,37.0,20.0,24.75,6
24.25,-11.25,3.25,-8.25,8.5,24.0,21.0,19.75,6
21.5,6.25,2.5,-9.5,-4.0,9.25,11.25,13.25,6
3.5,-0.5,-4.5,-13.0,-0.25,12.0,11.5,3.75,6
3.0,-5.25,-11.0,-10.25,16.25,19.0,16.25,15.75,6
-9.25,-1.5,-4.75,3.25,10.0,24.25,24.25,18.0,6
-24.75,6.0,-1.75,-18.75,8.25,20.0,21.75,3.5,6
-17.0,0.25,-6.5,-20.75,20.75,17.0,18.25,12.0,6
-17.5,-6.0,-7.5,-20.0,40.75,21.0,26.75,30.5,6
-8.0,1.75,-4.25,-12.0,42.0,27.75,39.5,33.25,6
-11.25,11.25,4.5,-4.5,34.75,15.25,31.5,23.25,6
-15.0,2.75,-4.5,-19.5,19.5,15.75,28.5,17.25,6
-16.0,1.75,-9.0,-2.5,23.25,24.75,30.75,20.5,6
-20.5,10.5,3.0,-8.25,24.25,22.25,36.25,20.0,6
-9.5,15.75,5.25,-7.75,30.0,18.25,41.5,17.5,6
-12.0,10.0,0.75,-6.5,33.75,13.25,31.5,22.75,6
-10.5,-8.75,-2.0,-12.0,35.5,20.25,29.5,20.25,6
-6.0,-4.0,-7.5,-8.25,40.25,13.25,20.75,29.75,6
-17.25,-7.75,-2.25,-12.5,37.75,16.25,24.25,39.0,6
-18.25,-1.75,-4.0,-7.25,50.75,21.25,36.75,33.25,6
-23.75,0.25,-7.25,-3.75,55.5,25.0,39.5,28.5,6
-18.75,6.5,-11.0,-1.25,51.75,13.75,48.5,17.5,6
-16.75,13.0,-4.25,-9.5,44.75,19.75,45.75,24.0,6
-12.25,9.25,-4.0,-5.0,39.75,16.75,41.25,22.5,6
6.0,8.25,-17.0,-3.75,20.75,11.75,38.25,18.25,6
-15.25,-5.5,-17.0,-18.5,3.0,23.5,27.25,4.75,6
-21.75,-7.25,-19.5,-27.25,-7.5,12.5,22.5,-6.75,6
-6.0,-12.5,-19.75,-26.25,-24.75,26.25,26.5,-5.0,6
-16.5,-0.75,-20.75,-25.5,-40.0,22.5,6.75,-3.0,6
-6.75,-8.0,-22.25,-21.75,-24.75,10.0,10.75,3.5,6
-3.75,-4.75,-9.75,-17.75,7.75,19.25,12.5,3.5,6
3.0,6.75,-14.25,-19.0,20.5,28.0,11.25,7.0,6
6.0,-4.0,-13.5,-24.25,33.0,28.5,19.75,-1.25,6
-0.75,3.5,-10.5,-16.0,25.0,22.25,14.5,4.5,6
-10.5,8.25,-8.25,-9.75,25.75,16.5,26.0,27.25,6
-14.0,11.0,-14.75,-8.5,43.25,23.5,6.75,22.5,6
-23.5,1.25,-14.5,-8.5,54.0,33.75,18.0,14.75,6
-44.0,3.5,-9.5,-14.5,48.25,28.75,7.75,7.75,6
-46.25,1.5,-15.5,-9.5,37.25,27.25,8.25,12.75,6
-47.75,3.25,-7.5,-14.0,54.0,30.0,23.0,22.75,6
-24.5,16.25,-8.0,-5.75,56.0,47.5,29.0,38.5,6
12.0,18.25,3.0,14.0,74.25,52.0,45.5,50.25,6
36.75,20.5,11.5,1.75,78.0,48.0,25.75,41.25,6
38.5,13.25,6.5,-0.25,54.25,42.25,32.75,35.5,6
42.0,19.25,2.5,5.0,15.0,39.25,31.0,32.75,6
35.25,11.0,-2.25,-19.0,-38.5,38.75,18.0,25.25,6
20.25,4.0,-1.75,-19.0,-51.25,23.5,11.5,18.5,6
30.75,12.75,-0.5,-10.25,-75.25,29.25,5.5,22.0,6
16.0,8.0,5.25,-19.75,-85.0,35.5,15.0,30.5,6
12.75,5.5,5.0,-12.75,-48.25,41.0,22.0,29.0,6
15.0,4.5,6.25,-13.5,7.0,30.0,26.25,23.25,6
2.0,3.0,8.5,-10.75,53.0,27.75,28.25,21.5,6
5.0,9.75,14.25,-1.0,72.75,37.25,29.5,21.5,6
-3.0,8.75,7.5,1.0,83.0,37.25,34.75,14.5,6
-4.5,14.0,9.0,-1.25,105.75,32.25,32.0,19.75,6
-4.5,11.0,6.75,-7.25,102.0,31.0,29.5,17.25,6
-16.75,-1.25,6.0,-21.25,65.0,26.5,23.5,17.0,6
-23.0,20.0,14.25,-21.5,45.25,24.0,19.75,25.75,6
-27.5,12.75,18.25,-10.5,31.5,32.5,21.0,13.0,6
-21.25,7.75,25.5,-4.25,16.5,29.25,21.25,12.75,6
-29.5,10.0,23.0,-2.25,16.25,34.0,25.75,33.0,6
-38.0,12.75,24.25,-11.25,38.0,35.0,22.75,26.5,6
-19.75,13.5,16.5,-8.25,34.25,35.75,30.75,12.5,6
-6.25,5.75,1.5,-23.5,29.75,24.75,25.0,21.0,6
6.0,17.75,6.5,-22.25,27.25,35.75,21.5,19.25,6
8.0,16.75,15.5,-14.5,26.0,44.25,18.75,14.25,6
2.0,14.0,8.75,-25.0,36.75,33.25,15.25,6.5,6
5.25,2.75,13.75,-30.0,29.5,27.5,17.5,4.75,6
-4.25,-6.75,3.25,-49.0,20.75,18.75,15.5,2.75,6
-10.5,-14.5,-10.5,-52.5,12.75,7.25,13.5,-2.0,6
-15.75,-9.75,-2.5,-51.5,10.75,-1.5,14.5,10.5,6
-21.0,-14.5,-3.5,-44.75,6.75,3.0,7.25,6.5,6
-12.5,-20.75,-2.75,-43.75,0.25,18.25,11.0,13.0,6
-3.25,-5.0,-8.75,-39.5,9.0,25.5,36.25,23.5,6
-1.5,-8.75,2.5,-22.0,-0.5,29.25,32.25,7.5,6
-8.75,-22.75,5.5,-28.25,-18.0,34.5,27.75,12.75,6
-11.75,-12.25,-6.0,-27.75,-7.5,26.75,31.25,10.5,6
-6.75,-1.5,-17.0,-15.0,9.5,15.25,32.75,7.5,6
-6.25,5.5,-13.0,-12.75,16.75,21.25,34.25,10.0,6
-18.25,20.25,-20.25,-19.75,34.25,19.25,27.5,8.5,6
-25.75,15.25,-22.5,-17.75,27.0,14.0,30.5,15.0,6
-32.25,13.5,-30.0,-10.25,31.0,21.25,27.75,15.25,6
-33.25,2.25,-40.5,-3.0,35.0,25.5,26.75,11.75,6
-46.25,7.0,-31.75,4.0,24.0,20.25,28.25,10.25,6
-48.0,6.75,-34.75,3.5,22.25,12.5,27.75,13.5,6
-24.5,-3.0,-29.5,11.5,29.75,4.25,14.75,14.25,6
-36.75,0.5,-25.5,12.5,33.25,12.25,16.75,14.0,6
-32.75,1.75,-24.0,3.0,19.5,24.0,18.75,15.75,6
-31.25,17.25,-29.0,-8.25,37.25,20.25,12.75,22.25,6
-30.5,13.75,-35.5,4.25,26.5,24.75,21.0,26.5,6
-26.5,5.0,-37.5,-1.25,8.0,19.0,11.0,2.5,6
-21.25,-4.0,-28.75,-9.5,14.0,18.0,12.25,6.25,6
-7.0,-0.5,-34.25,-13.25,2.25,6.25,13.25,9.5,6
-8.75,-1.25,-35.5,-21.25,1.5,8.25,13.75,-6.75,6
10.0,4.0,-25.5,-12.5,5.0,15.75,19.5,1.75,6
11.5,4.25,-29.25,-21.5,-4.5,9.5,29.25,8.25,6
22.0,-1.5,-16.0,-18.0,-3.25,27.0,30.25,13.25,6
32.0,21.25,-23.25,-5.0,15.5,27.75,26.0,26.25,6
19.25,13.25,-20.5,-2.0,31.5,16.0,29.5,29.75,6
11.5,17.75,-9.25,3.75,39.5,19.25,33.0,26.25,6
5.75,25.0,-12.75,7.0,44.5,27.5,33.5,26.75,6
-9.75,16.25,-5.25,-0.75,58.75,27.5,31.25,16.25,6
-20.5,30.0,-18.75,3.5,43.25,29.75,36.75,21.5,6
-8.0,18.0,-9.25,11.75,47.5,26.75,28.75,21.25,6
-13.0,19.25,-1.0,7.75,60.25,30.5,39.75,28.75,6
-10.25,32.25,-0.75,17.0,59.75,39.25,44.5,28.0,6
3.5,33.0,3.0,6.75,62.75,33.5,30.0,21.25,6
-5.0,26.0,-4.75,3.75,43.5,37.25,31.0,38.25,6
-10.25,17.25,3.0,-2.5,60.25,29.25,26.5,25.75,6
-14.25,11.5,7.25,-10.75,53.5,23.0,17.5,11.75,6
-22.0,-0.25,13.25,-7.75,43.0,25.25,19.0,10.0,6
-18.0,-3.5,17.0,-18.75,23.0,18.0,17.5,17.25,6
-27.75,-0.5,-2.0,-23.25,-9.25,16.75,13.75,3.75,6
-19.75,1.0,-5.5,-26.5,-17.25,9.5,21.25,13.25,6
-10.5,-1.5,-1.5,-24.25,-32.75,3.5,13.25,17.0,6
-17.25,2.5,-0.75,-32.0,-19.5,3.75,10.25,7.5,6
-13.75,-5.75,5.75,-33.75,5.25,14.25,13.5,18.5,6
-10.5,-8.25,4.0,-38.5,23.25,21.5,10.5,7.5,6
-6.75,-6.75,1.75,-34.0,14.75,30.5,14.0,17.0,6
1.5,-11.0,-9.5,-29.5,10.0,34.75,15.0,20.5,6
-8.25,-19.25,-9.5,-43.25,29.5,39.75,28.5,17.0,6
-11.25,-10.0,2.5,-34.0,34.0,39.5,25.25,22.5,6
2.5,-7.5,-6.0,-26.75,-6.0,34.25,23.25,24.0,6
1.75,-12.0,-0.75,-22.0,-20.25,36.5,21.75,23.0,6
0.75,1.25,0.75,-16.5,5.5,29.5,23.5,25.0,6
-12.25,4.25,-0.75,-18.25,-6.75,23.75,33.25,17.25,6
-5.0,1.25,-5.0,-19.75,12.5,29.0,20.5,12.75,6
4.0,-3.0,-7.5,-14.5,32.25,24.25,27.0,28.25,6
-8.5,1.0,4.25,-14.75,30.75,25.0,27.5,16.25,6
-6.5,-4.0,4.25,-19.25,37.0,28.25,16.5,19.75,6
-18.75,-0.75,2.0,-11.5,51.75,12.75,10.75,19.0,6
-33.5,8.25,-7.0,-5.5,68.5,21.25,9.25,25.25,6
-34.25,2.0,-0.5,-8.0,50.25,34.75,16.25,24.25,6
-29.75,8.25,3.25,-14.75,22.0,27.25,25.75,11.75,6
-17.75,0.25,3.75,-11.75,12.0,25.0,19.75,22.5,6
3.25,8.25,6.0,-12.0,3.0,27.25,19.75,21.25,6
24.5,3.75,13.5,-8.25,9.0,35.0,35.25,22.5,6
40.75,0.5,14.5,6.25,29.5,46.0,54.0,41.75,6
53.25,13.25,8.25,-4.75,23.25,36.75,41.0,28.25,6
32.0,-4.0,7.0,-9.25,18.5,30.5,32.75,18.5,6
5.75,10.0,1.75,-6.5,5.5,32.25,36.25,24.25,6
-2.0,9.75,6.0,-15.0,27.0,26.75,32.75,14.75,6
-9.75,8.5,-5.0,-18.5,50.75,33.75,29.5,13.25,6
-11.25,10.5,-9.75,-27.75,35.75,21.75,19.0,9.25,6
-11.75,-3.5,-19.75,-19.75,39.0,12.0,20.75,11.75,6
-9.25,3.0,-13.5,-25.25,31.75,2.25,19.5,-1.25,6
-8.0,1.5,-13.25,-25.25,28.25,4.75,26.25,-3.25,6
-15.75,-1.25,-21.0,-24.5,16.5,21.25,25.25,-3.0,6
0.0,1.25,-9.5,-39.0,8.25,15.0,24.75,-7.75,6
3.5,-1.75,-15.75,-22.25,16.0,24.5,28.5,-0.5,6
-3.75,4.0,-17.25,-22.0,14.25,24.5,29.0,-2.75,6
-6.25,8.5,-1.5,-15.75,12.75,26.75,42.5,16.25,6
-24.75,2.75,-8.75,-12.0,23.0,34.25,26.5,21.75,6
-30.0,7.25,-10.0,-8.75,19.25,27.25,28.25,26.25,6
-22.25,-7.75,-12.25,-2.0,14.5,26.0,30.25,25.5,6
-28.25,-15.25,-19.5,-19.0,19.5,25.5,27.75,34.5,6
-28.25,-6.25,-16.25,-15.0,2.0,18.75,37.25,33.5,6
-16.25,-14.75,-12.0,-12.75,-3.0,8.5,21.0,31.5,6
-8.75,-6.25,1.75,-18.25,-14.0,13.25,17.0,30.25,6
-7.75,-0.25,-10.75,-17.75,6.0,32.5,25.0,15.25,6
-12.25,8.75,-4.25,-6.5,34.0,31.25,25.5,26.75,6
-9.25,8.25,-3.0,-12.0,47.0,29.25,22.0,34.75,6
-13.75,9.75,-2.5,-16.5,64.5,38.0,18.75,36.0,6
-9.75,8.0,12.0,2.5,63.0,27.75,31.75,32.75,6
0.25,7.5,3.25,0.0,66.5,24.5,33.75,26.5,6
-13.25,3.0,-6.25,-2.5,60.0,27.75,17.75,25.0,6
-15.75,7.5,-9.25,-3.25,64.0,25.25,7.75,11.0,6
-24.5,1.25,-6.75,-6.25,63.75,23.0,11.0,0.25,6
-19.0,-7.5,-6.75,-0.5,61.25,21.0,10.5,15.25,6
0.5,-2.5,-0.5,3.5,66.0,33.0,22.75,19.75,6
-5.25,-1.5,-0.5,-1.0,73.0,25.5,27.5,23.75,6
-11.25,2.0,3.25,-7.5,65.75,20.25,19.0,22.75,6
-12.75,-0.25,-7.0,-2.5,80.0,27.25,26.0,17.75,6
-11.25,2.5,-10.25,-12.5,70.0,22.75,23.5,10.25,6
-13.75,-1.5,-5.0,-16.75,41.0,26.5,18.25,6.5,6
-19.25,-2.0,-16.5,-19.0,44.0,18.5,10.5,-1.75,6
-17.75,3.0,-16.0,-36.75,33.25,5.0,7.0,-3.5,6
-26.0,0.0,-9.5,-29.75,31.5,13.0,6.5,7.5,6
-18.0,-4.25,-9.75,-27.25,-23.25,19.0,15.25,11.75,6
-7.25,1.75,-7.5,-24.75,-81.75,20.0,21.0,24.5,6
-14.0,16.0,-2.0,-15.25,-106.0,29.75,33.25,25.0,6
-14.75,24.5,0.25,-11.25,-108.5,37.5,50.0,24.25,6
-2.0,31.75,8.0,-9.25,-79.25,20.0,45.5,30.0,6
-2.0,18.5,1.5,-12.0,-37.75,15.75,41.25,32.25,6
-10.0,20.25,-5.25,-11.5,-8.0,19.25,41.75,37.0,6
-11.5,25.25,0.0,1.5,14.5,14.25,49.5,31.25,6
-3.0,18.75,-3.75,-0.5,34.0,21.75,34.5,17.0,6
-3.5,14.25,3.25,-9.75,12.0,24.5,29.5,12.25,6
-23.5,17.5,-3.0,-11.75,4.0,25.25,31.75,18.75,6
-20.0,11.25,-7.25,-14.25,19.75,23.0,26.0,17.5,6
-33.0,9.0,-3.0,-14.5,45.25,10.25,24.25,4.5,6
-34.0,10.0,3.25,-9.25,48.0,10.25,24.75,10.0,6
-33.5,4.0,-2.5,-8.0,41.25,23.75,22.25,17.0,6
-31.25,1.75,-4.0,-13.5,43.0,18.25,27.75,7.5,6
-18.0,3.75,-1.25,-15.75,20.0,14.25,28.75,8.75,6
-21.5,17.75,-6.75,-10.25,28.75,34.75,25.0,8.0,6
-7.5,7.25,-19.75,-8.25,11.0,24.25,31.5,12.0,6
-4.0,6.5,-16.0,-12.25,4.75,21.0,20.25,9.5,6
12.0,2.5,-5.25,-5.5,19.5,17.5,11.5,11.75,6
36.75,-8.0,-11.25,-13.25,16.25,31.25,14.75,14.5,6
33.25,12.25,-0.5,-3.0,30.25,40.0,33.25,24.0,6
41.75,22.5,18.25,20.75,44.75,32.25,42.5,33.5,6
39.75,27.75,6.75,7.0,65.5,44.5,32.5,25.75,6
30.0,11.75,6.0,11.0,72.0,40.75,31.75,35.25,6
25.25,16.25,1.0,5.25,100.25,34.5,29.0,26.5,6
7.75,12.25,0.5,-9.25,78.0,17.75,22.25,15.25,6
2.0,1.5,1.25,-12.25,41.5,20.5,20.5,12.5,6
-17.5,11.5,-4.75,-24.25,41.25,24.5,12.25,11.75,6
-30.5,4.25,-8.0,-21.0,27.75,-2.5,16.5,10.75,6
-21.0,-13.25,-20.25,-20.0,22.5,-2.75,0.75,2.0,6
-27.25,-23.75,-12.25,-27.0,11.25,15.25,-9.25,11.25,6
-29.5,-6.25,-21.5,-26.25,-11.5,14.75,18.0,1.5,6
-28.25,-1.75,-21.25,-30.25,-22.25,17.25,14.75,0.5,6
-34.75,-5.25,-24.75,-28.0,3.0,14.5,30.25,15.75,6
-29.75,3.0,-26.75,-25.25,30.25,25.0,27.25,17.5,6
-23.75,3.5,-22.0,-18.5,27.75,28.75,29.0,16.0,6
-27.25,-8.25,-13.0,-26.75,30.5,20.75,35.25,16.25,6
-16.5,-4.5,-7.25,-38.5,27.75,18.25,17.25,21.25,6
-16.0,-1.5,-21.25,-23.5,19.5,15.75,11.25,3.0,6
-18.0,-0.5,-3.75,-13.75,21.0,26.25,18.25,15.5,6
-14.75,11.5,-3.75,-23.75,24.5,23.0,23.25,22.25,6
-13.5,-3.5,-2.5,-19.25,37.0,33.75,22.25,9.5,6
-21.75,-3.5,-5.5,-18.0,35.75,32.25,28.25,21.0,6
-24.25,-9.0,-3.75,-18.75,34.75,24.5,24.75,21.25,6
-25.75,-13.5,-8.75,-17.5,18.0,30.75,22.25,21.75,6
-34.75,-0.75,-22.5,-20.25,15.5,20.25,13.5,14.5,6
-32.0,-11.5,-10.5,-8.75,17.75,27.0,19.75,8.75,6
-24.75,-14.5,-15.0,-17.0,4.75,26.25,24.75,9.25,6
-6.0,-7.75,-4.5,-17.75,13.0,21.5,24.0,9.0,6
-0.75,-5.0,-12.5,-17.25,7.5,28.5,28.0,20.75,6
10.75,-2.25,-11.25,-27.0,8.75,21.0,11.25,16.75,6
28.75,3.5,-4.5,-27.75,30.5,27.5,23.5,25.25,6
43.0,-5.25,-7.5,-31.25,56.0,37.25,23.25,40.5,6
46.75,7.25,3.0,-9.25,74.5,48.25,30.25,40.5,6
27.5,16.5,6.5,1.25,85.5,47.25,38.25,43.25,6
13.5,3.25,7.25,-9.5,100.25,43.25,23.0,26.0,6
-4.25,3.25,6.75,-16.25,81.25,49.5,22.5,23.5,6
-7.5,-4.0,11.5,-27.25,52.5,34.5,17.75,8.75,6
2.25,-1.75,15.75,-27.5,-0.5,24.0,16.0,6.25,6
3.5,-17.25,10.75,-26.5,-33.75,27.5,18.25,15.5,6
11.75,-16.0,21.0,-35.75,-53.0,31.0,14.5,16.0,6
14.25,-8.75,32.25,-32.0,-90.0,17.25,10.5,22.75,6
12.75,-12.25,19.25,-42.0,-77.25,11.25,19.25,-1.25,6
17.5,-6.0,19.25,-36.5,-60.75,26.75,9.0,10.0,6
8.0,-17.75,6.0,-36.0,-56.0,25.0,16.5,10.5,6
3.75,2.75,1.0,-38.75,-36.75,23.75,24.25,8.5,6
1.5,6.0,9.25,-22.25,-2.25,28.25,25.25,20.5,6
-10.5,6.0,4.5,-25.25,21.0,16.5,25.0,19.25,6
-25.75,6.75,-3.75,-13.75,32.75,23.25,18.5,25.5,6
-22.25,6.0,-7.5,-11.5,54.0,26.25,42.0,10.5,6
-18.75,16.5,-0.25,-2.25,51.25,22.0,25.0,12.0,6
-28.0,3.75,-11.0,-6.75,52.25,17.25,21.0,13.5,6
-34.75,7.5,-9.75,-9.0,46.75,19.25,38.25,21.5,6
-29.0,7.75,-11.75,0.0,47.5,33.75,33.0,19.75,6
-30.0,15.75,-12.0,-4.75,47.0,24.25,35.25,11.5,6
-34.75,8.75,-16.5,-10.25,27.5,23.5,33.75,16.25,6
-31.0,6.5,-31.25,-9.5,30.25,22.75,19.25,14.75,6
-35.75,16.25,-23.25,-7.5,21.0,21.75,25.75,18.75,6
-30.0,5.75,-20.75,-12.5,43.75,29.75,33.0,17.0,6
-29.5,8.5,-20.5,-12.25,57.75,27.0,13.25,14.75,6
-30.5,8.5,-27.0,-0.25,44.5,18.75,17.0,9.25,6
-22.25,12.5,-26.0,4.75,48.25,16.75,20.5,5.25,6
-20.0,9.5,-26.0,-5.5,40.75,18.5,16.75,12.5,6
-17.75,13.25,-32.25,4.25,46.75,23.75,31.5,22.25,6
-13.75,23.0,-16.5,5.75,43.75,26.0,31.25,29.0,6
5.0,24.25,-26.0,16.0,53.75,35.0,47.0,21.75,6
10.5,21.0,-17.75,16.75,27.75,26.5,27.5,24.25,6
6.75,11.0,-7.25,9.5,12.0,12.75,20.5,22.0,6
5.0,15.0,-23.5,10.25,23.5,14.5,21.5,25.5,6
8.0,2.25,-24.25,-9.5,19.5,16.5,3.0,31.0,6
10.75,-3.5,-17.75,-5.75,27.75,22.5,5.75,11.75,6
7.0,9.5,-12.5,-11.5,9.75,17.75,-2.5,7.75,6
8.5,2.75,-20.25,-10.5,14.0,23.75,17.0,13.0,6
-7.75,-4.0,-10.5,-16.25,14.5,28.25,22.75,11.0,6
-1.75,-9.25,-9.0,-18.0,13.75,14.0,18.75,15.25,6
-5.0,-9.5,-15.0,-10.25,24.25,11.25,7.75,14.75,6
-8.75,-3.5,-10.25,-20.5,29.25,7.0,9.75,9.5,6
-2.25,1.5,-11.25,-2.0,56.5,11.5,24.0,14.5,6
-17.25,10.0,-1.0,-9.25,41.5,27.75,27.0,22.5,6
-14.5,10.25,-1.25,-11.75,47.25,41.25,40.75,21.25,6
-3.25,6.75,8.5,-13.0,52.5,42.5,30.25,23.0,6
-9.0,8.25,15.5,-8.0,35.75,36.5,22.0,21.25,6
-20.75,20.75,9.0,3.75,32.0,29.0,31.75,16.25,6
-10.5,17.5,-0.75,-24.75,29.25,25.0,39.0,21.5,6
-3.5,13.5,4.75,-15.5,17.5,24.0,31.25,25.0,6
-8.5,17.25,14.75,-14.75,12.5,26.25,27.0,24.0,6
-8.0,-6.75,3.75,-29.5,-8.5,25.0,21.5,28.0,6
-12.75,-6.0,3.0,-32.5,-25.0,18.5,16.5,22.25,6
-4.5,4.5,3.25,-36.25,-11.5,27.0,24.75,24.5,6
-7.75,3.5,-3.5,-17.75,-7.5,14.25,20.25,15.75,6
-13.25,3.5,-5.0,-21.0,1.25,8.0,31.5,9.75,6
-7.75,-3.0,-14.25,-9.75,2.25,20.0,25.25,11.5,6
-12.75,2.5,-3.0,-8.75,9.25,19.25,23.25,11.0,6
-10.0,5.0,-7.75,-14.75,25.0,23.25,24.25,9.5,6
-11.25,2.75,-9.75,-12.0,25.25,10.75,14.5,5.5,6
-8.25,4.5,-3.5,-13.5,37.25,17.0,29.75,15.5,6
-8.25,-2.5,-14.75,3.25,49.5,43.25,39.5,13.5,6
-8.75,7.0,-1.25,5.5,69.0,24.75,47.0,17.25,6
-1.0,18.75,-9.5,-9.0,53.25,20.5,44.0,22.75,6
-14.0,11.5,-18.0,-13.5,23.75,17.75,26.5,3.25,6
-17.5,17.5,-1.5,-8.0,22.25,24.0,25.25,18.25,6
-20.25,8.25,-5.75,-12.5,12.75,28.0,23.5,16.25,6
-14.75,0.25,-4.5,-17.75,13.25,20.0,15.5,10.0,6
-16.0,-5.25,-12.25,-23.25,24.0,24.25,7.0,2.75,6
-32.0,-11.5,-9.75,-29.5,36.0,22.5,13.25,-3.0,6
-28.0,-6.5,-2.75,-35.5,45.0,21.0,15.75,-3.25,6
-32.5,-15.25,-12.75,-33.0,50.25,22.25,24.25,-2.0,6
-39.75,-13.25,-4.75,-22.25,76.5,24.75,32.0,17.25,6
-48.25,-5.5,-1.25,-28.75,87.75,31.75,20.25,12.0,6
-35.75,-6.0,-18.25,-28.0,74.75,30.0,17.25,10.25,6
-24.25,-10.5,-17.0,-9.75,64.75,25.0,27.0,12.0,6
-17.0,-3.5,-14.75,-10.0,26.0,29.0,32.75,12.25,6
-17.25,6.25,-3.75,-18.5,-26.0,39.0,28.75,20.25,6
-17.5,4.5,4.0,-14.0,-64.75,36.0,16.25,14.0,6
0.5,-2.75,-3.75,-11.5,-68.75,26.0,13.75,22.75,6
2.75,4.25,-7.5,-30.75,-30.75,19.75,23.25,19.0,6
12.75,4.25,-14.25,-29.5,-10.75,13.0,26.5,21.0,6
27.5,-5.0,-6.0,-22.5,-5.0,16.0,17.5,15.25,6
37.0,-4.75,-10.75,-10.75,-9.75,17.0,20.0,6.0,6
50.0,3.25,-15.25,-6.25,-26.5,24.25,19.75,18.0,6
53.0,10.0,-9.25,-18.25,-26.0,29.0,16.25,16.25,6
66.25,10.0,8.0,-20.5,2.5,13.0,23.25,13.0,6
61.0,0.5,7.0,-13.5,16.5,1.5,8.75,11.25,6
44.75,-1.0,-9.0,-17.0,6.25,2.75,10.5,15.25,6
27.75,12.25,-9.25,-24.0,10.5,13.75,14.75,7.0,6
-1.25,2.0,0.0,-19.25,4.25,19.25,24.5,9.5,6
8.25,12.75,9.75,-20.75,12.25,29.75,22.25,24.0,6
-3.5,16.75,2.5,-13.5,43.0,30.0,24.25,27.75,6
0.0,6.25,0.5,-6.25,60.25,24.25,39.25,45.0,6
8.5,16.75,10.5,-6.25,58.75,50.25,44.75,45.75,6
-13.0,21.5,12.0,2.0,65.75,39.5,35.5,33.25,6
-16.0,19.0,11.75,-13.5,58.25,27.5,25.25,35.75,6
-22.0,4.0,5.25,-5.5,51.0,32.0,36.5,39.5,6
-21.5,9.0,0.0,-13.0,53.0,29.75,40.25,34.0,6
-35.75,8.75,0.25,-4.25,45.5,35.5,35.25,28.0,6
-31.75,6.25,-1.75,-10.75,38.5,27.25,41.25,26.25,6
-42.25,9.75,-0.5,-12.75,36.5,28.0,31.25,27.5,6
-50.0,4.5,-6.25,11.0,32.5,37.0,31.75,26.0,6
-39.75,9.5,-6.75,-16.25,31.25,26.25,33.5,21.0,6
-38.25,3.25,-17.0,-13.0,39.0,25.0,27.0,23.75,6
-7.75,-2.75,-11.0,-3.0,33.0,36.25,34.25,19.0,6
4.5,1.5,2.75,2.25,40.75,35.25,24.0,32.5,6
2.25,10.25,-7.0,-3.5,51.75,37.5,31.0,32.25,6
11.0,16.75,-7.75,-5.0,58.75,21.5,38.0,21.0,6
7.5,15.5,-13.25,0.0,58.0,33.25,38.0,16.25,6
-1.25,13.25,-3.25,-5.5,56.75,34.0,30.75,6.0,6
-13.5,6.75,1.5,-5.5,55.25,17.5,17.75,18.75,6
-13.75,12.5,-2.5,-23.5,40.5,23.5,19.5,15.5,6
-14.5,9.75,0.25,-17.5,2.75,13.25,27.0,16.0,6
-18.25,9.5,-1.25,-10.25,-43.25,21.25,21.75,14.75,6
-24.0,5.25,-2.5,-16.25,-70.25,12.0,11.5,15.75,6
-15.0,-4.0,-3.5,-17.25,-102.75,12.25,4.75,11.25,6
-18.5,-0.75,1.5,-15.5,-83.5,23.25,-0.25,1.5,6
-15.75,-5.5,-5.5,-9.5,-38.75,24.0,4.5,10.0,6
-23.75,-3.0,-9.25,-8.75,0.0,23.0,2.25,9.0,6
-38.5,-5.25,-10.75,-18.5,39.75,12.0,-1.5,6.5,6
-30.25,0.25,-17.5,-24.5,58.75,6.25,5.0,14.0,6
-31.25,-3.25,-20.75,-15.5,66.5,-1.0,4.25,25.25,6
-39.75,-7.5,-22.5,-26.0,82.25,9.75,8.5,19.75,6
-37.25,5.0,-13.5,-27.75,90.5,8.25,20.25,22.25,6
-19.0,6.5,-7.75,-10.5,70.25,14.75,22.75,22.75,6
-14.75,11.0,-6.25,-2.0,51.0,35.75,21.25,31.0,6
-9.75,23.25,-11.0,-0.75,25.5,34.0,23.5,20.0,6
-13.0,16.5,-11.5,-13.25,14.0,18.0,22.75,16.25,6
-16.25,0.75,-1.5,-11.5,16.75,21.5,26.75,19.0,6
-18.25,2.0,-9.25,-13.75,23.0,34.0,27.5,1.75,6
-12.75,1.0,-13.0,-9.25,32.0,19.0,29.25,7.75,6
-6.25,-8.0,-10.75,-10.0,20.75,25.25,20.25,-3.75,6
-10.5,-7.0,-4.5,-17.0,12.25,20.25,20.25,-8.75,6
-7.75,-6.0,-9.5,-19.25,26.0,11.5,26.75,-4.75,6
-10.75,-5.25,-13.75,-23.25,9.5,18.25,8.75,0.75,6
-7.0,-15.25,-4.75,-22.75,9.25,13.75,20.0,1.0,6
-11.5,-0.75,-10.25,-33.25,10.25,20.0,15.75,-5.75,6
1.75,0.0,-8.75,-40.5,-5.5,12.0,11.5,9.75,6
0.25,-16.0,-10.5,-30.5,6.0,17.75,21.5,4.25,6
-15.25,2.75,-20.5,-25.5,3.0,16.75,26.75,-2.75,6
-4.25,4.5,-20.75,-20.5,19.25,15.5,24.5,2.75,6
-8.25,0.75,-20.5,-25.75,26.75,17.0,21.0,1.75,6
-14.0,11.25,-14.25,-27.75,24.25,14.0,16.5,1.25,6
-14.75,14.25,-8.25,-22.25,16.75,10.25,13.0,14.5,6
-13.75,0.75,-2.5,-25.25,9.25,14.0,28.75,14.0,6
-16.5,9.5,-0.5,-20.5,17.75,28.5,24.25,9.25,6
-18.0,7.5,-3.25,-12.5,16.25,14.75,11.75,18.75,6
-21.5,3.5,5.0,-17.0,30.5,23.25,33.25,15.75,6
-11.5,4.75,0.25,-9.5,26.5,29.75,40.25,27.25,6
-14.5,-5.75,2.0,-8.0,31.75,27.5,35.75,26.5,6
-15.75,14.25,11.0,-13.0,30.75,38.5,36.25,28.75,6
-18.75,15.5,10.0,-5.0,29.75,37.0,33.75,39.5,6
-25.0,17.0,3.75,-4.0,46.5,45.0,41.25,34.5,6
-5.75,25.75,0.75,-1.0,34.0,43.5,41.25,47.25,6
-9.75,22.25,8.25,-2.0,41.5,37.25,47.5,42.0,6
-6.0,26.75,2.0,-13.5,34.5,30.75,37.5,24.0,6
9.25,23.0,-8.75,-6.0,31.75,46.0,41.25,36.5,6
17.75,34.25,9.25,-10.5,37.25,63.75,55.25,46.25,6
20.25,31.5,6.75,-6.75,53.25,53.25,49.0,37.0,6
6.5,19.5,-7.0,-2.75,46.25,45.5,47.0,37.0,6
-4.75,10.75,-2.0,-1.75,37.0,25.5,35.5,39.0,6
-3.25,7.25,9.25,-9.5,39.25,11.25,34.25,25.5,6
-3.5,5.75,3.0,-17.5,42.5,13.5,32.75,25.25,6
4.75,4.75,-7.0,-5.0,56.75,14.75,21.75,13.25,6
5.75,-6.25,-7.0,-17.0,58.25,12.75,24.25,8.25,6
-15.5,0.5,-15.0,-15.5,54.75,16.5,26.0,11.0,6
-17.25,0.5,-8.0,-14.75,57.5,21.25,21.5,0.75,6
-26.0,-3.25,-11.75,-14.5,70.0,32.0,24.75,12.5,6
-26.5,1.0,-11.25,-9.25,69.0,15.25,20.25,3.0,6
-16.5,-9.0,-15.75,-19.0,46.25,5.0,5.75,2.0,6
-10.25,-12.75,-17.75,-21.5,8.75,16.25,10.75,6.5,6
-8.0,-11.25,-4.0,-32.0,-11.25,15.0,10.75,-1.5,6
16.75,-12.25,-10.75,-38.0,-34.75,13.75,-5.25,4.0,6
48.5,-10.75,-10.25,-49.25,-66.75,4.75,6.5,-2.25,6
37.25,1.5,-13.0,-38.5,-93.25,14.5,13.0,9.75,6
36.0,-10.25,-10.0,-24.75,-108.0,18.0,10.5,13.5,6
33.25,4.0,-8.0,-40.25,-73.75,25.75,25.25,12.0,6
11.5,5.25,-10.75,-25.0,-29.25,27.5,26.0,15.25,6
7.25,2.25,-9.0,-31.75,-17.25,10.5,26.75,16.75,6
15.25,17.0,2.0,-21.25,-0.75,21.5,26.5,26.25,6
-0.25,1.5,-5.75,-17.25,26.75,15.0,18.75,11.5,6
-13.0,1.0,-18.5,-19.75,33.25,17.25,28.75,11.5,6
-3.5,1.25,-12.75,-7.25,37.75,19.0,29.25,21.75,6
-8.0,8.5,-10.75,-10.5,44.75,19.75,20.0,18.75,6
-12.0,9.5,3.0,-8.0,27.75,30.5,26.5,16.75,6
-11.25,-0.25,-8.5,-12.0,36.5,16.0,19.0,4.25,6
-25.25,-2.75,-11.5,-4.5,30.5,21.75,17.0,11.0,6
-28.5,3.5,-4.5,6.75,37.75,20.75,22.75,26.25,6
-40.25,6.25,-7.0,6.5,61.75,20.25,21.75,33.25,6
-27.5,15.0,1.75,-0.5,87.5,31.75,37.0,37.0,6
-18.75,4.0,-0.5,2.25,106.5,24.0,16.5,28.75,6
-24.5,5.0,-9.75,8.0,81.75,21.0,10.0,27.0,6
-19.0,9.5,1.75,1.5,59.75,33.25,15.25,35.25,6
-21.0,2.0,-10.25,6.5,43.75,23.5,19.25,33.75,6
-15.25,9.75,-20.0,6.25,35.75,27.75,32.75,23.5,6
-10.0,4.25,-2.25,1.25,16.75,36.5,21.5,36.0,6
-11.75,6.75,-14.5,1.25,6.5,38.0,31.25,22.0,6
0.0,6.75,-9.75,4.75,13.0,39.75,31.0,23.75,6
0.5,-1.0,0.25,2.25,27.25,31.0,37.0,32.25,6
-1.5,-3.5,-1.75,-9.25,24.5,31.0,38.0,9.75,6
6.25,3.25,-2.25,3.75,23.75,35.25,26.5,10.75,6
-1.75,13.0,-3.75,7.0,23.5,32.25,32.25,14.5,6
-0.5,-2.75,-11.5,-6.25,16.5,27.0,17.25,9.25,6
-4.25,2.5,-26.5,-8.0,14.5,25.25,13.0,-2.0,6
-2.25,5.5,-9.0,-10.5,25.0,21.25,18.0,5.25,6
-0.75,4.5,-5.0,-15.5,15.25,25.5,25.25,11.5,6
-27.5,0.0,-15.0,-6.25,14.25,19.5,23.25,6.5,6
-32.5,1.5,-8.0,-6.5,15.75,14.75,13.0,6.5,6
-21.75,-0.75,-8.25,-26.25,6.75,22.75,6.25,-6.25,6
-15.5,-14.0,-20.0,-29.25,20.0,22.5,3.0,-3.75,6
-15.75,-4.5,-12.25,-27.5,-0.25,15.25,3.0,3.25,6
-7.75,-1.5,-1.25,-27.5,-4.75,20.25,2.0,1.75,6
10.75,-6.25,-7.25,-37.5,12.75,15.0,15.5,6.5,6
6.0,-8.5,-8.75,-20.5,17.25,15.25,7.75,10.0,6
11.25,-13.75,-9.75,-10.5,29.5,18.25,18.5,8.75,6
17.25,1.25,-10.75,-10.75,36.5,17.75,24.75,10.5,6
2.5,1.5,-4.25,-5.5,62.0,28.0,24.0,29.0,6
10.5,-11.75,3.75,-16.0,71.5,24.0,18.25,15.0,6
-2.5,-8.5,-7.25,-18.25,51.0,25.25,12.0,17.5,6
-11.25,1.25,1.0,-12.0,50.75,22.0,28.25,34.0,6
-15.5,8.75,4.5,-2.75,30.25,31.0,30.5,39.75,6
-27.5,18.5,3.5,-1.75,17.5,45.0,50.75,56.25,6
-16.75,23.25,12.5,-0.5,7.75,44.0,36.75,42.0,6
-30.75,5.75,7.0,-21.25,-47.75,43.25,37.5,29.75,6
-28.25,10.0,-3.5,-26.75,-57.75,40.0,32.0,23.75,6
-17.0,5.25,-2.0,-18.5,-58.0,26.25,17.5,28.5,6
-23.5,-6.0,-0.75,-33.75,-51.75,24.75,40.75,14.75,6
-16.0,7.75,-10.75,-23.0,3.0,34.25,26.25,16.75,6
-12.5,-11.0,-11.75,-22.0,50.5,20.75,26.0,24.5,6
-4.0,-10.25,-12.5,-34.25,66.25,8.25,15.0,5.75,6
-4.75,3.5,-11.0,-25.25,56.0,14.5,10.0,14.75,6
-3.0,-17.5,-15.75,-31.5,30.5,12.25,14.5,9.5,6
6.25,-7.5,-6.75,-23.0,7.0,12.0,17.0,12.75,6
-3.25,-0.75,1.5,-18.5,2.25,8.5,25.5,13.25,6
-3.75,-3.25,-7.0,-17.75,1.25,17.0,17.5,11.5,6
-11.0,1.0,-2.5,-18.0,13.0,5.25,23.75,7.0,6
-19.5,-15.75,-1.0,-29.0,23.25,2.25,11.5,5.0,6
-21.25,-12.25,-2.75,-19.5,25.25,19.0,13.75,18.0,6
-7.75,-11.75,-10.0,-15.5,36.75,2.75,17.75,17.75,6
-6.5,-8.25,5.0,-10.25,34.0,12.75,22.25,12.25,6
-3.75,1.0,5.75,-8.0,50.0,19.5,29.0,20.5,6
7.0,4.25,2.5,-6.0,43.25,22.25,32.5,26.0,6
11.0,21.0,6.0,1.25,42.5,27.25,40.25,21.75,6
9.25,9.25,-1.5,2.5,48.75,32.5,41.0,23.0,6
-17.25,1.25,2.0,3.5,27.5,36.75,47.5,23.75,6
-14.25,8.0,-8.0,-5.0,35.25,36.25,30.75,23.0,6
-12.25,11.0,-8.25,-11.0,36.75,30.25,28.5,12.75,6
-7.75,4.5,-12.5,-8.25,35.75,19.5,25.0,23.0,6
-19.75,2.25,-11.5,-15.0,34.25,27.25,25.75,22.75,6
-21.25,3.5,-4.5,-13.0,30.5,27.25,37.5,16.75,6
-7.25,-4.75,-0.75,-13.0,18.0,31.0,29.25,21.75,6
-18.5,8.25,2.5,-18.0,9.5,36.0,28.5,18.0,6
-20.75,0.5,-2.5,-9.25,16.0,32.5,28.25,28.0,6
-16.5,3.5,8.5,-8.25,17.75,35.5,36.75,40.75,6
-8.25,15.5,11.25,-8.0,16.25,38.0,28.75,30.0,6
-3.0,14.25,15.75,-10.75,17.75,29.75,28.75,23.25,6
-15.0,9.75,6.75,-11.25,28.5,26.75,27.5,26.25,6
-22.75,11.75,5.75,-4.0,31.75,25.5,25.5,26.0,6
-13.5,7.0,7.5,-5.75,39.0,24.5,26.25,22.0,6
-25.5,14.25,-1.5,-10.5,44.25,20.25,18.5,16.25,6
-36.75,20.75,-4.75,-20.75,48.0,11.75,27.0,18.0,6
-45.0,16.0,-11.75,-18.25,30.5,17.5,26.75,18.75,6
-53.25,26.5,-8.0,-18.25,18.25,17.75,23.0,7.25,6
-45.25,4.25,-2.0,-20.5,14.25,18.5,22.5,12.25,6
-32.5,13.5,-16.0,-19.0,-5.25,24.25,24.25,18.75,6
2.0,7.25,-13.75,-14.25,4.0,14.75,14.25,16.75,6
13.0,-10.5,-12.5,-20.0,29.5,23.75,14.75,19.0,6
28.25,4.5,-15.75,-30.75,29.75,22.25,20.5,13.0,6
34.25,-0.25,-0.75,-26.75,11.75,17.75,15.25,9.75,6
37.0,3.25,-4.0,-27.75,27.0,26.5,21.5,3.5,6
36.0,1.25,-6.75,-25.25,40.75,23.25,17.5,4.5,6
15.25,10.75,-10.75,-28.25,43.75,21.0,32.5,6.0,6
15.0,-0.5,2.0,-30.5,45.25,24.75,31.5,1.0,6
17.0,-0.5,-7.0,-24.75,33.75,17.5,25.75,5.25,6
24.0,6.0,-21.0,-29.75,27.25,15.75,30.25,3.25,6
15.75,3.75,-12.25,-16.5,15.25,19.75,23.75,0.75,6
12.25,10.5,-13.75,-10.5,19.25,21.25,23.75,-3.25,6
8.75,2.5,-14.0,-9.75,16.5,16.75,14.75,-7.25,6
3.25,2.25,-18.5,-11.75,19.25,18.0,25.0,2.75,6
-10.25,-12.0,-23.5,-20.75,21.5,17.25,22.5,-1.75,6
-27.0,-1.75,-16.25,-12.0,25.25,29.25,7.0,-8.25,6
-18.5,-4.0,-13.25,-16.0,28.5,21.75,11.75,-7.0,6
-33.75,-9.75,-19.0,-23.25,24.0,11.0,10.5,3.75,6
-37.75,0.25,-18.25,-17.0,30.75,24.25,20.5,16.5,6
-24.25,14.25,-7.0,-1.5,37.0,31.0,25.25,22.0,6
-24.75,30.75,-10.25,5.75,77.75,45.5,31.5,28.75,6
-20.5,27.25,-2.25,1.0,91.75,37.5,37.0,24.75,6
-20.0,25.75,10.0,0.0,85.75,32.5,23.5,20.25,6
-18.75,23.75,2.0,-10.25,26.25,32.0,24.0,21.5,6
-26.5,21.5,8.5,-4.5,-23.5,30.75,30.0,24.25,6
-22.5,16.25,-1.5,-3.75,-18.5,27.25,44.25,20.75,6
-18.25,9.25,-7.25,-16.5,-40.5,15.25,36.25,5.75,6
-28.25,7.5,-3.75,-15.5,-36.5,21.5,30.75,19.75,6
-21.5,9.0,-5.25,-10.0,-54.75,19.0,31.75,32.0,6
-13.5,7.5,-1.75,-27.0,-84.75,20.25,15.75,23.0,6
-29.0,6.0,-5.25,-20.5,-70.0,27.5,15.5,23.0,6
-34.75,6.25,-2.75,-17.0,-28.0,36.5,23.75,20.0,6
-21.0,2.5,-6.5,-18.5,49.75,41.5,26.25,30.75,6
-10.5,11.75,-3.5,-11.25,81.75,34.5,16.0,20.75,6
-17.25,9.0,-3.0,-26.0,67.0,34.75,27.0,16.25,6
-19.5,8.0,-8.75,-10.5,47.25,41.25,35.25,32.75,6
-15.5,12.0,-15.5,-21.0,6.75,42.75,23.25,26.75,6
-12.0,-1.25,-14.25,-26.25,4.5,41.25,25.75,32.25,6
-6.0,3.0,-3.75,-19.0,31.25,49.5,26.0,39.25,6
-10.25,11.5,-6.0,-4.75,46.25,44.0,27.5,29.25,6
-10.5,1.5,-8.5,3.25,33.5,39.0,29.0,22.75,6
-10.75,-3.5,-13.5,-21.0,4.25,34.5,28.5,24.0,6
-14.5,5.25,-8.25,-9.5,6.5,23.0,30.5,21.75,6
-14.75,-4.0,-4.75,-13.0,33.0,16.0,22.0,20.0,6
-7.5,-6.25,6.0,-15.0,66.0,23.75,29.5,24.0,6
-2.25,4.5,10.0,-15.0,76.25,29.25,25.75,24.0,6
-7.5,3.5,6.25,-4.5,74.0,15.75,21.0,25.0,6
11.5,5.75,4.75,0.5,74.75,13.25,14.0,17.75,6
2.5,-4.5,0.75,-7.75,67.0,18.0,13.0,15.0,6
-0.75,-5.75,4.0,-1.0,61.5,19.0,32.0,23.25,6
6.25,0.0,-1.0,-0.5,64.5,10.75,33.25,30.75,6
1.5,5.75,-1.0,-1.5,63.25,17.5,36.0,37.75,6
17.5,15.25,5.5,-3.25,42.5,34.25,40.75,25.5,6
10.0,13.75,8.5,8.0,13.75,31.75,27.75,31.0,6
21.5,7.25,4.0,-9.0,-12.5,20.75,8.0,31.5,6
7.75,-4.0,-7.5,-18.5,-36.0,10.25,6.75,12.25,6
0.0,-6.25,-12.5,-12.5,-14.5,3.75,7.0,7.75,6
10.5,-1.75,-15.25,-28.5,1.75,9.5,5.5,2.5,6
-5.5,-10.5,-7.25,-21.75,-5.75,15.75,12.5,5.0,6
-14.5,0.25,-16.25,-13.25,-0.75,27.75,19.0,9.5,6
-8.75,-0.5,-13.5,-4.75,0.0,27.5,18.5,17.0,6
0.0,-7.0,-3.5,2.0,0.75,34.25,14.75,9.75,6
-6.5,9.5,-6.5,-8.5,-0.25,37.75,18.25,7.75,6
-11.5,1.75,-4.25,-12.0,4.75,24.5,17.5,18.75,6
-21.75,0.75,-10.0,-15.25,12.0,32.0,31.0,18.0,6
-24.0,-7.5,-10.0,-24.25,25.25,20.75,20.5,20.5,6
-16.25,1.25,-8.25,-20.0,38.0,21.5,15.5,11.75,6
-15.5,8.25,-11.5,-29.0,48.0,28.25,23.75,13.5,6
-10.5,4.25,1.5,-29.25,45.5,28.75,31.5,22.0,6
-19.5,14.75,2.75,-29.75,45.75,35.25,34.25,20.0,6
-15.0,3.75,-5.75,-26.75,58.0,21.75,41.0,18.0,6
-6.5,12.25,-4.75,-21.25,83.75,25.0,40.0,18.0,6
-17.25,12.75,-1.75,-7.75,49.75,31.5,47.75,6.5,6
-16.5,9.75,2.25,-11.25,-1.25,27.5,52.0,9.75,6
-26.75,11.75,4.25,-16.0,-11.5,34.0,41.75,7.0,6
-23.75,7.25,-2.0,-7.75,-42.25,28.25,32.5,9.0,6
-16.0,7.25,-16.0,-10.25,-28.75,16.25,23.5,14.25,6
-8.5,4.0,-22.0,-6.5,-10.5,14.75,20.5,9.0,6
20.5,-5.5,-11.25,-11.25,9.25,16.25,25.25,1.5,6
19.75,3.5,-13.5,-13.25,35.0,11.75,24.0,1.25,6
17.75,3.0,-18.0,-11.25,27.75,8.75,10.0,6.25,6
27.5,-7.75,-12.0,-18.5,25.5,4.5,6.0,-7.25,6
6.75,-1.0,-11.75,-12.5,44.0,6.0,4.0,3.75,6
-11.0,2.0,-8.5,-13.0,59.75,15.25,5.25,16.5,6
-19.0,12.0,2.0,-9.0,67.75,34.25,15.5,26.0,6
-14.25,18.25,0.0,-5.5,57.75,22.75,6.0,7.0,6
-7.75,-2.5,1.5,-13.25,50.75,18.5,1.5,16.0,6
-18.0,1.0,2.5,-11.25,68.0,27.5,8.0,25.75,6
4.5,8.0,-5.5,-5.0,56.0,22.25,15.5,11.75,6
8.5,-2.0,-15.75,-15.25,27.0,28.75,8.25,15.75,6
9.5,-3.5,-8.0,-17.75,-7.0,13.5,3.5,6.5,6
18.75,3.25,-8.75,-17.25,-50.0,23.75,14.5,21.0,6
6.0,12.25,-16.25,-24.75,-78.75,25.75,18.0,17.75,6
23.25,2.0,-14.0,-22.5,-92.5,14.5,18.25,11.75,6
27.0,1.75,-12.0,-18.75,-56.25,15.75,19.5,14.25,6
10.0,16.0,-6.75,-17.5,17.0,11.5,25.25,17.0,6
-10.0,11.75,-8.75,-18.0,87.25,14.5,36.0,21.75,6
-7.0,3.25,-6.75,-14.75,85.25,12.25,38.25,26.5,6
-5.5,6.75,-6.5,-18.25,59.5,15.75,37.5,19.5,6
-11.0,4.75,-2.75,-14.0,51.25,19.75,33.5,22.25,6
-8.25,3.5,-4.5,-18.5,52.75,13.25,41.0,25.5,6
-28.25,13.75,-6.25,-25.0,60.75,25.75,34.0,18.0,6
-25.25,15.0,0.0,-16.75,39.5,31.5,26.0,14.0,6
-30.5,11.25,-9.0,-16.75,41.75,21.5,26.5,6.25,6
-27.5,1.5,-17.0,-16.5,37.25,21.75,36.75,19.0,6
-18.75,-4.0,-4.75,-15.5,34.5,18.75,45.5,5.75,6
-34.25,-5.25,-4.0,-20.75,35.25,24.75,35.5,12.5,6
-25.75,-8.5,-7.25,-20.75,27.25,20.0,26.5,20.75,6
-27.0,-12.5,-9.0,-12.75,31.25,21.75,28.5,21.75,6
-27.25,-10.75,-2.0,-15.5,35.75,32.0,27.0,17.0,6
-11.25,-7.5,1.5,-21.5,44.0,25.5,10.25,15.75,6
-14.25,-12.0,-1.25,-7.5,34.5,26.75,18.0,26.75,6
-25.25,-1.5,-2.75,-6.25,34.5,23.5,14.75,17.0,6
-25.25,-16.25,-10.75,-16.25,23.75,28.75,28.75,23.25,6
-18.5,-10.25,4.25,-10.75,21.25,36.75,30.25,35.5,6
-9.0,-4.75,-5.5,-10.75,33.5,35.0,28.25,28.5,6
-3.5,4.75,3.75,0.5,32.5,37.5,40.25,21.25,6
-1.75,30.5,-3.0,4.5,32.75,36.5,27.5,24.0,6
0.0,15.25,-7.5,-6.5,20.5,33.0,28.25,20.25,6
2.25,9.25,16.25,-3.25,27.0,24.5,29.0,24.0,6
7.25,7.75,2.0,-8.0,18.0,27.5,26.75,38.25,6
-1.5,9.75,-3.25,-5.5,0.75,22.75,28.0,31.25,6
-15.75,8.25,-3.0,-7.75,7.0,24.0,38.0,15.25,6
-17.25,6.75,4.25,-14.75,-2.0,20.75,29.75,22.75,6
-17.25,0.5,-6.5,-10.0,11.25,15.5,26.5,24.75,6
-25.5,4.25,-3.5,-15.75,18.5,27.5,28.0,18.75,6
-23.25,5.25,-0.75,-9.75,13.5,19.0,14.5,21.75,6
-21.0,-8.0,-18.75,-12.75,31.5,25.25,10.75,12.75,6
-25.5,-3.25,-17.75,-17.5,29.25,19.75,19.25,14.25,6
-23.25,-5.5,-18.75,-17.0,33.75,20.5,22.25,14.0,6
-23.5,-5.75,-19.75,-9.0,39.75,22.75,23.5,13.75,6
-11.75,2.0,-18.0,-11.5,29.75,24.5,23.25,25.75,6
-13.25,2.0,-14.0,-35.75,27.25,26.5,10.25,11.5,6
-19.5,3.0,-10.25,-25.25,23.0,12.5,11.5,11.75,6
-12.25,4.25,-14.0,-28.75,-4.25,19.5,2.75,12.0,6
-15.0,7.0,-18.0,-29.0,3.0,6.5,12.0,-11.5,6
-9.25,-2.0,-21.5,-31.25,7.25,17.0,9.25,-4.0,6
-8.0,-8.0,-19.75,-23.0,-4.0,17.5,0.25,5.25,6
-8.0,0.5,-20.25,-10.75,30.5,19.75,16.25,5.25,6
-9.25,-0.75,-19.0,-24.25,52.0,24.0,11.5,5.75,6
-3.25,-1.0,-14.25,-16.25,51.0,22.25,13.25,6.75,6
-3.5,-1.25,-1.25,-24.0,26.0,28.5,12.25,16.5,6
-7.75,3.75,1.0,-15.25,1.0,19.75,11.75,17.75,6
-8.75,6.5,-9.75,-18.75,-17.0,25.5,15.25,23.5,6
-5.5,9.5,-7.75,-21.0,-5.0,26.25,21.25,28.5,6
-14.0,15.25,-3.0,-17.0,16.0,19.25,26.75,27.25,6
-14.25,9.75,-5.25,-25.25,-7.0,20.0,24.25,34.5,6
-15.75,14.5,-10.0,-6.5,4.5,23.25,33.25,27.25,6
-20.0,32.0,-12.0,4.75,19.5,36.75,29.5,32.75,6
-17.0,34.5,-3.75,2.75,46.25,36.25,25.0,43.25,6
-27.75,30.5,5.75,-8.25,67.75,28.5,28.25,32.75,6
-18.25,31.25,0.25,-1.5,63.0,27.0,33.25,36.0,6
-1.0,19.0,-1.5,-8.25,44.25,28.75,34.25,38.75,6
10.0,18.5,4.0,-14.0,13.0,31.75,20.0,26.5,6
19.25,17.5,-9.0,-13.0,7.0,34.0,11.5,22.0,6
32.5,7.0,-7.75,-16.75,55.75,38.5,16.75,26.25,6
33.0,5.5,-5.5,-11.5,62.5,43.75,14.75,17.75,6
36.75,7.0,2.0,-15.75,36.0,35.75,22.75,6.25,6
27.25,4.0,10.25,-25.0,35.75,31.5,24.5,5.0,6
18.25,3.0,3.0,-18.25,-8.5,29.5,30.0,3.0,6
25.5,-2.0,10.25,-6.0,-6.5,22.0,25.75,15.75,6
10.25,-8.25,4.25,-12.75,-4.25,27.25,24.75,8.0,6
8.5,-9.25,-6.25,-8.75,5.25,22.0,27.5,1.75,6
-2.0,3.75,-1.25,-21.5,18.0,18.25,18.75,11.0,6
-8.0,0.0,-4.0,-5.75,-1.75,11.5,21.5,10.5,6
-9.75,2.5,-4.5,-10.0,1.0,21.0,19.0,14.5,6
0.5,-3.75,-11.75,-17.0,-16.25,30.0,15.5,14.25,6
6.25,-13.5,-13.5,-11.25,-12.0,32.25,24.0,16.5,6
-8.0,-6.75,-10.25,-22.5,5.25,33.0,36.75,19.75,6
-9.75,-10.0,6.25,-6.75,48.75,28.25,31.5,13.5,6
-12.0,-5.25,1.25,-8.5,69.75,30.0,32.25,6.75,6
-13.75,-0.25,-7.25,-1.0,40.25,29.5,34.5,15.0,6
-28.5,-0.5,5.5,1.0,35.5,35.25,27.75,13.0,6
-31.5,-4.0,-2.75,-15.25,32.5,21.25,25.25,21.5,6
-47.5,-6.0,6.25,-4.75,18.5,10.75,21.25,21.25,6
-60.25,-9.25,7.75,-9.75,10.0,8.5,29.5,18.75,6
-45.0,-12.25,6.0,-17.0,19.5,12.25,18.0,17.0,6
-32.0,-16.25,6.5,-17.0,26.25,15.25,21.5,18.25,6
-19.75,-17.25,3.5,-17.0,23.0,9.0,16.25,24.25,6
3.0,-4.25,7.75,-15.5,31.75,20.25,16.5,15.25,6
23.75,5.75,7.5,-15.0,37.25,23.75,44.25,30.25,6
30.5,8.0,-3.75,-6.25,35.5,13.25,37.0,20.25,6
27.75,-4.0,-4.0,-5.0,32.25,15.75,28.5,21.25,6
8.0,-9.0,-5.75,-15.75,45.0,8.25,36.0,23.0,6
-14.25,-13.0,-13.0,-17.25,40.25,10.25,34.0,16.0,6
-30.0,-2.5,-12.25,-8.0,31.0,8.75,30.0,21.0,6
-26.25,-0.5,-20.25,-21.75,24.75,12.0,24.0,14.0,6
-25.75,2.5,-13.0,-22.5,27.0,13.75,27.25,14.25,6
-38.0,12.0,-12.75,-10.25,29.25,10.0,21.75,5.5,6
-34.25,-7.25,-14.75,-18.5,18.25,10.25,17.75,8.5,6
-39.5,-7.5,-9.0,-19.5,13.75,3.0,11.25,19.25,6
-41.75,3.5,-2.0,-18.0,9.25,17.0,12.25,24.0,6
-26.0,13.0,-9.5,-17.0,1.25,16.75,20.0,19.0,6
-24.25,6.75,-13.5,-19.25,4.75,24.5,20.25,14.5,6
-32.75,11.0,-14.25,-28.25,11.0,19.5,25.25,16.25,6
-26.5,6.25,-16.5,-35.5,16.75,8.75,19.25,12.75,6
-19.25,2.5,-12.0,-19.5,33.0,26.75,22.25,13.25,6
-17.25,12.0,-10.0,-14.5,19.0,21.75,30.0,26.75,6
-5.5,17.0,-0.75,-20.5,5.0,27.0,28.5,36.75,6
10.25,30.25,-9.25,-7.5,18.75,35.0,34.75,32.5,6
16.0,16.75,-12.25,-3.0,37.5,30.75,26.25,29.25,6
10.75,29.0,-16.0,-13.75,39.25,31.5,15.0,23.5,6
17.75,24.25,-16.0,-13.0,41.75,38.25,22.0,22.25,6
11.75,15.75,-10.25,-3.75,14.25,37.25,28.25,22.0,6
0.0,17.0,-20.0,-12.75,-16.25,21.5,22.5,26.0,6
2.5,5.25,-5.25,-10.5,-1.5,20.75,20.5,20.0,6
5.5,9.75,-2.75,-1.5,8.75,30.75,25.5,18.75,6
7.5,7.25,-8.25,-1.75,7.5,34.75,34.25,19.5,6
-9.5,10.75,-4.0,-14.0,-7.0,32.75,29.25,12.0,6
-7.0,-1.0,-15.75,-27.75,0.25,32.75,15.25,11.25,6
-13.5,-0.25,-20.0,-30.0,-8.0,17.5,24.25,7.75,6
-20.0,0.75,-19.5,-25.75,8.5,21.75,26.5,14.25,6
-4.5,2.25,-7.5,-20.5,48.25,35.75,30.75,15.5,6
-7.75,14.5,0.0,-14.75,44.0,35.0,37.25,7.0,6
-12.25,-6.0,-12.75,-24.25,40.0,19.0,29.25,0.75,6
1.25,-6.0,-9.25,-22.0,41.75,5.25,22.25,-8.0,6
-1.5,-6.0,-3.25,-21.0,36.0,2.0,19.5,-5.25,6
3.0,-8.5,-11.5,-18.0,19.5,0.0,19.25,1.75,6
16.5,-9.75,-15.0,-19.0,19.75,11.5,12.0,7.25,6
11.5,-8.75,-6.25,-23.25,12.5,12.75,21.25,5.5,6
13.0,-6.0,-9.75,-21.25,13.5,21.5,20.0,-2.25,6
-1.25,-10.25,-21.25,-22.25,2.75,16.0,16.5,4.25,6
-6.0,1.75,-14.0,-14.0,7.25,13.0,23.0,8.75,6
-17.25,2.25,-7.25,-14.75,42.0,28.25,31.75,3.25,6
-23.75,-4.0,-8.75,-26.25,46.5,21.5,31.25,15.5,6
-13.5,4.25,2.75,-27.5,25.5,26.25,26.75,18.0,6
-14.0,2.75,3.5,-16.25,34.25,43.75,31.0,28.5,6
-9.5,8.5,2.0,-12.0,43.75,49.0,32.75,39.25,6
-27.0,12.5,-5.75,-2.0,33.75,47.75,29.75,25.5,6
-21.75,3.75,-6.0,-8.5,32.0,46.25,26.75,25.25,6
-30.75,12.0,-8.0,-5.0,34.25,40.5,29.75,28.75,6
-20.75,16.5,8.25,1.5,39.5,49.0,25.75,37.5,6
-16.25,17.25,12.25,2.5,45.5,44.25,21.25,34.75,6
-14.75,21.25,5.0,6.5,46.5,38.5,20.75,25.25,6
-2.25,12.25,18.75,10.0,38.25,43.75,31.5,24.5,6
0.0,9.0,20.75,14.25,34.75,41.25,38.75,15.75,6
-3.25,12.75,17.75,-1.0,33.5,47.5,27.0,10.75,6
-5.0,13.25,8.5,-6.0,32.0,50.0,27.25,17.75,6
4.25,22.0,10.5,3.0,34.5,41.0,20.0,21.0,6
6.25,10.75,9.0,-9.5,31.0,35.75,15.5,27.25,6
13.0,0.75,6.75,-3.0,33.5,31.0,16.5,23.75,6
17.0,14.75,1.5,-9.5,18.5,20.25,15.0,15.5,6
22.25,11.75,0.25,-15.0,17.25,25.0,16.25,11.75,6
11.5,17.0,-7.0,-2.5,46.0,22.0,25.75,19.0,6
8.25,15.75,-0.25,0.25,53.25,23.25,29.75,32.75,6
9.75,16.0,7.25,-0.75,69.25,34.75,38.0,22.0,6
-0.5,7.5,5.75,-9.0,84.0,34.25,24.5,19.5,6
-2.25,0.75,12.25,-15.25,68.75,27.25,13.5,5.75,6
-13.75,4.75,-8.5,-25.25,65.75,12.5,16.75,10.0,6
-15.0,-11.5,-20.5,-29.5,36.0,3.25,13.0,10.75,6
-15.75,-19.75,-10.5,-28.25,-3.5,2.75,13.25,-1.25,6
-25.0,-14.25,-19.75,-31.0,-46.5,9.75,0.5,14.5,6
-29.0,-1.5,-17.5,-28.5,-106.5,3.0,9.25,7.75,6
-20.5,-7.25,-4.5,-28.75,-155.0,1.75,18.5,-8.25,6
-17.75,-14.5,-6.25,-23.0,-152.25,15.0,20.0,3.0,6
-24.0,-3.25,-15.75,-12.25,-66.25,31.5,30.0,15.5,6
-24.0,6.75,-13.0,-13.0,40.75,31.75,20.25,4.75,6
-26.25,-2.0,-11.0,-18.5,86.25,17.75,16.5,10.25,6
-21.75,-7.25,-8.0,-31.25,105.25,11.0,25.75,9.25,6
-16.5,3.75,-5.5,-26.5,90.25,8.0,16.0,16.5,6
-19.0,6.0,-9.25,-10.25,59.5,12.25,5.75,10.75,6
-30.0,3.0,-7.75,2.75,42.0,1.25,19.25,8.0,6
-26.0,5.0,-12.75,-0.75,17.0,-10.25,18.5,20.25,6
-25.5,-10.5,-9.0,0.75,11.5,7.25,18.25,13.75,6
-40.5,-14.25,-6.5,-5.25,-18.0,17.25,23.75,20.25,6
-47.5,-3.75,-17.5,-8.25,-18.5,13.5,26.5,12.0,6
-35.75,-5.0,-4.5,0.5,19.75,24.5,46.0,14.25,6
-37.25,-3.5,5.0,-8.0,45.5,28.5,24.25,1.25,6
-34.5,2.0,-3.0,-5.75,42.0,33.5,29.5,7.0,6
-4.0,13.5,0.5,7.25,31.25,27.5,32.0,17.25,6
6.75,11.75,1.0,-11.25,47.75,27.25,30.25,3.5,6
32.75,8.75,-8.0,-14.75,39.5,39.5,35.0,12.25,6
39.0,11.0,-7.0,-18.25,37.75,40.75,28.0,9.25,6
39.75,11.5,-3.25,-31.0,36.5,35.5,42.0,2.5,6
32.5,5.25,5.0,-25.75,29.25,34.0,38.5,13.0,6
23.75,2.0,1.5,-21.25,34.75,33.5,34.0,18.75,6
11.75,18.75,3.0,-0.75,45.0,36.25,47.0,30.25,6
-4.25,18.0,9.25,-9.25,46.0,27.25,40.25,29.25,6
-10.5,16.0,-7.25,-17.25,33.5,10.75,35.0,26.5,6
-25.0,14.5,3.5,-11.0,37.0,20.75,30.0,28.25,6
-27.75,21.0,1.75,-19.75,37.0,31.5,17.5,26.75,6
-25.25,4.75,-1.5,-12.5,31.5,26.5,26.0,32.25,6
-27.5,-1.5,-3.25,-17.25,21.0,15.5,15.75,24.0,6
-21.75,-4.5,-25.0,-21.25,20.0,19.5,16.0,26.0,6
-10.0,-11.25,-20.25,-23.5,17.75,11.0,19.75,17.75,6
-3.5,-5.25,-16.75,-20.0,9.25,25.75,21.75,19.5,6
2.75,-6.0,-10.75,-16.75,10.0,23.75,13.5,29.0,6
0.25,-2.5,-9.75,-25.0,4.25,11.25,2.0,12.75,6
-6.5,0.75,-14.5,-23.5,14.5,15.5,9.0,21.0,6
-13.25,7.25,-20.75,-26.0,31.75,8.25,-3.25,17.5,6
-17.5,-3.25,-19.25,-8.5,23.0,19.75,11.5,34.0,6
-22.75,-3.0,-16.0,-8.5,18.5,29.0,22.5,35.5,6
-20.5,4.75,-5.75,-18.5,12.5,31.75,27.25,17.5,6
-22.0,16.5,-3.0,-12.0,22.5,27.25,20.0,27.0,6
-29.5,8.5,-8.25,-18.75,52.0,25.75,18.5,21.0,6
0.75,13.5,-2.5,-18.25,40.75,19.0,26.0,25.75,6
-7.25,18.0,-9.0,-16.0,44.0,17.75,21.75,20.0,6
-2.75,15.75,-14.75,-12.0,60.5,35.25,30.5,16.25,6
9.0,9.25,-12.25,-7.25,69.5,34.25,28.25,30.0,6
-9.25,3.25,2.25,-3.5,62.25,30.0,36.5,25.0,6
-13.25,17.5,4.25,-0.75,52.75,31.25,35.25,12.75,6
-27.25,12.0,-2.75,3.75,50.0,38.75,43.25,29.5,6
-20.25,16.5,4.5,-0.5,-10.75,29.5,41.25,25.5,6
-20.0,14.75,-8.0,-13.0,-76.25,30.0,34.5,29.0,6
-19.75,15.25,-6.0,-15.5,-94.25,27.25,43.0,30.25,6
-9.0,9.25,-8.5,-29.25,-79.5,20.75,19.5,18.5,6
-4.5,-5.5,-23.75,-32.75,-33.75,13.5,21.5,17.75,6
6.0,12.0,-13.0,-17.75,26.5,8.5,32.25,18.75,6
14.0,20.0,-4.75,-12.25,61.25,29.25,27.75,27.25,6
19.75,0.5,-8.25,-19.25,80.25,19.5,27.25,14.5,6
15.75,2.25,-22.25,-26.25,46.0,17.0,18.0,11.75,6
4.0,7.5,-6.25,-12.75,26.0,22.75,13.25,16.0,6
-13.0,5.0,0.0,-11.0,27.0,29.0,12.25,10.25,6
-16.5,4.0,-16.75,-20.5,7.0,27.25,9.5,5.25,6
-11.5,3.5,-5.5,-25.25,-1.5,21.0,2.5,-0.5,6
-8.0,-9.25,-12.75,-24.5,0.5,31.25,9.25,3.0,6
-17.25,-12.25,-18.0,-26.25,20.75,27.0,16.0,12.75,6
-18.75,-5.25,-11.75,-27.75,19.5,17.25,14.0,20.75,6
-8.5,-5.5,-3.0,-21.0,29.5,15.0,13.5,16.5,6
-25.0,-1.0,-10.75,-20.0,28.25,25.75,10.75,14.5,6
-23.25,-3.75,-19.25,-19.25,24.75,25.0,17.0,19.5,6
-20.0,4.75,-29.75,-12.25,39.0,22.25,27.75,21.5,6
-18.5,6.25,-6.0,-15.75,40.75,23.5,35.5,23.25,6
-10.0,13.25,8.75,-3.75,42.25,22.0,28.75,26.25,6
-14.5,18.5,0.0,3.0,45.0,22.75,25.25,15.75,6
-17.0,10.75,9.75,-12.75,44.5,28.75,27.5,12.75,6
-22.75,6.25,6.5,-5.0,39.25,35.25,38.0,26.75,6
-14.5,2.75,5.75,-5.75,23.5,27.5,33.25,23.0,6
-7.0,2.75,6.25,-24.0,24.25,18.75,36.5,18.25,6
-2.0,-4.75,-0.75,-26.25,29.25,18.25,31.25,13.0,6
9.25,1.0,-14.5,-19.5,11.25,17.5,17.75,18.75,6
16.5,-10.5,-14.0,-18.0,22.5,28.25,31.0,26.5,6
16.75,-0.75,-3.75,-18.25,17.0,30.0,21.0,11.0,6
15.0,1.75,-2.25,-13.75,15.0,25.75,28.75,17.5,6
