0,1,2,3,4,5,6,7,label
-34.5,-110.5,-112.0,-156.75,-109.5,-105.25,-125.75,-128.0,7
-12.75,-123.0,-130.5,-147.75,-132.5,-131.5,-145.0,-157.25,7
-22.75,-135.75,-134.75,-168.75,-125.5,-127.75,-153.25,-127.5,7
-78.0,-146.0,-113.0,-161.75,-123.25,-141.75,-152.5,-120.5,7
-83.5,-155.25,-110.25,-162.0,-129.5,-124.25,-159.25,-117.5,7
-104.75,-160.75,-114.25,-175.25,-110.0,-120.75,-140.75,-123.0,7
-114.0,-152.5,-96.5,-171.5,-110.0,-100.25,-131.5,-117.25,7
-109.75,-130.5,-101.75,-158.25,-99.0,-92.75,-119.75,-106.25,7
-103.5,-124.0,-97.25,-142.75,-78.25,-94.25,-114.75,-101.75,7
-90.75,-116.25,-85.0,-150.25,-62.75,-54.5,-105.25,-72.5,7
-87.0,-94.25,-83.5,-130.0,-46.0,-53.0,-86.0,-62.0,7
-48.75,-72.5,-67.75,-105.25,-53.5,-42.25,-60.0,-49.0,7
-33.5,-43.5,-66.75,-90.5,-47.0,-35.25,-40.0,-36.0,7
-6.25,-23.5,-67.0,-83.0,-40.75,-15.25,-18.25,-21.25,7
27.5,-14.75,-61.75,-58.5,-30.25,-4.5,-8.25,-6.25,7
44.75,13.25,-63.5,-30.25,-19.25,6.5,-7.75,-0.5,7
45.0,22.0,-46.5,-16.0,2.25,19.75,15.25,12.75,7
32.75,15.5,-19.75,-5.5,20.25,16.75,22.25,15.0,7
6.25,28.25,-2.25,-2.25,29.5,28.75,32.5,21.25,7
32.25,26.0,-2.25,17.75,38.5,37.5,50.25,25.0,7
44.0,30.5,6.75,20.25,31.5,61.25,53.75,30.5,7
29.0,26.25,13.25,29.25,42.5,60.75,59.25,34.25,7
49.0,41.0,9.75,28.75,51.0,69.5,68.5,33.75,7
38.25,65.25,16.75,33.75,73.5,82.75,64.5,48.5,7
40.75,59.5,21.5,44.75,66.5,83.0,70.25,75.5,7
35.0,70.0,30.0,45.25,62.5,93.25,85.25,66.0,7
33.0,68.25,29.25,34.5,75.0,87.75,88.75,69.25,7
23.75,70.0,33.5,26.25,70.0,79.5,90.5,82.25,7
18.25,76.75,38.25,34.5,71.75,85.5,88.25,73.5,7
30.75,71.5,24.75,40.0,61.5,85.5,90.75,74.25,7
37.75,73.5,31.5,51.25,73.75,86.25,95.75,73.5,7
58.25,84.0,18.75,45.0,72.75,80.75,96.75,67.5,7
80.75,87.5,-0.75,40.75,61.5,84.25,105.0,54.25,7
91.25,76.75,-10.5,55.5,65.5,89.25,105.0,60.25,7
128.75,90.25,-33.25,77.5,53.25,101.75,106.5,56.0,7
164.0,115.75,-25.25,84.0,58.0,118.5,111.0,57.5,7
141.25,110.5,-5.0,97.75,51.75,94.75,99.0,57.0,7
145.0,111.25,-9.25,87.75,48.75,70.5,100.75,36.25,7
122.0,91.5,0.0,73.5,47.25,61.75,86.75,63.75,7
105.0,82.75,12.75,70.25,35.0,44.5,80.75,63.5,7
97.75,80.25,1.75,55.0,32.0,50.5,86.25,42.5,7
69.0,77.0,4.25,55.5,36.75,51.25,68.5,47.0,7
56.5,59.25,14.5,41.5,46.0,50.75,64.5,35.0,7
32.5,45.0,16.0,33.0,42.5,65.0,59.0,52.25,7
15.75,38.0,24.75,22.25,44.0,57.25,49.0,53.0,7
0.0,38.0,12.0,21.0,49.0,46.75,58.0,81.0,7
-10.5,45.25,12.5,16.75,41.0,34.5,57.75,101.0,7
-26.75,30.0,24.5,10.25,51.75,31.5,44.75,77.0,7
-18.0,35.0,19.25,14.0,42.5,40.75,50.75,75.5,7
-30.75,22.25,22.75,7.5,38.5,38.0,37.75,50.75,7
-66.0,1.5,23.5,-2.0,49.0,33.75,40.25,44.25,7
-67.0,1.0,22.5,-9.75,35.5,26.75,44.25,16.75,7
-39.5,0.75,4.5,-14.75,37.5,29.25,35.75,-9.0,7
-28.25,3.25,4.5,-30.5,37.5,29.75,42.25,-39.0,7
-3.25,10.0,-4.5,-28.5,33.75,15.0,30.0,-28.75,7
23.5,11.0,-18.25,-14.5,39.5,-6.25,25.0,28.0,7
26.0,6.25,-12.5,-17.75,36.5,-2.25,25.0,-6.5,7
36.0,15.25,-22.25,-9.5,31.0,2.0,25.75,50.0,7
23.5,26.75,-24.75,-13.25,22.5,-2.75,24.75,85.75,7
20.5,34.5,-20.0,-16.0,22.25,0.0,23.0,48.5,7
5.75,33.25,-13.75,-9.75,36.25,3.5,19.25,81.5,7
-7.25,42.0,-5.5,-7.25,28.75,31.5,13.0,45.75,7
-17.25,30.75,3.5,-9.75,31.5,28.5,14.0,9.0,7
-37.5,16.0,3.0,-15.25,34.25,24.0,9.25,11.75,7
-58.0,9.5,-4.5,-13.0,29.25,26.5,20.75,-20.0,7
-50.5,-1.75,-6.5,-3.25,36.75,8.75,9.25,-81.75,7
-19.5,12.5,-2.75,-12.0,42.25,20.0,7.25,-39.5,7
10.5,17.25,1.75,-8.75,46.0,31.75,27.25,134.25,7
-19.25,9.5,18.25,-18.75,44.5,21.25,29.0,119.5,7
-34.75,-9.25,18.0,-14.75,41.0,19.5,27.25,79.5,7
-34.5,-13.25,6.75,-12.25,38.25,26.25,26.0,60.75,7
-37.75,0.0,3.75,-18.5,38.0,15.0,19.75,-17.75,7
-28.25,-11.5,2.25,-22.75,51.5,33.0,17.75,-23.75,7
-25.0,-13.5,7.25,-34.25,43.75,34.75,23.25,-143.25,7
-7.5,-16.5,11.5,-40.0,30.75,28.25,23.75,-247.25,7
-18.5,-15.25,4.0,-51.5,32.25,21.5,14.0,-119.75,7
-13.25,-14.0,7.25,-35.25,29.75,20.25,22.75,33.75,7
-7.25,-16.0,21.0,-30.5,30.5,25.0,20.75,14.5,7
-9.25,-12.25,23.25,-40.25,38.25,19.75,15.25,35.75,7
-18.75,-14.25,19.75,-37.5,40.25,29.75,18.25,31.0,7
-27.0,-3.5,16.75,-28.0,31.75,21.25,17.25,16.0,7
-41.75,-14.0,5.5,-34.0,43.5,39.5,21.5,48.5,7
-82.25,-18.25,34.0,-36.5,61.5,47.25,26.0,44.0,7
-123.0,-23.5,48.75,-33.25,50.75,35.5,30.5,54.25,7
-132.75,-33.5,29.0,-37.25,39.5,29.0,25.5,34.0,7
-107.5,-26.0,35.5,-36.5,50.5,29.5,29.5,42.0,7
-125.5,-27.25,34.5,-35.0,54.25,43.5,39.25,28.75,7
-112.5,-30.25,44.75,-27.0,54.25,31.25,40.75,32.25,7
-90.5,-24.25,37.25,-23.0,46.5,48.75,34.25,46.75,7
-90.5,-30.25,32.25,-29.5,38.75,41.75,36.25,51.0,7
-71.75,-19.75,26.25,-18.5,37.25,40.75,41.0,66.5,7
-54.25,-12.75,4.5,-22.75,23.75,52.0,31.0,62.25,7
-38.0,-8.75,-1.25,-24.75,32.0,34.25,36.0,76.75,7
-29.0,4.5,-26.75,-16.5,38.75,49.75,24.75,58.0,7
-7.0,-8.5,-29.5,-5.75,31.0,44.75,18.5,26.0,7
9.0,-4.25,-39.25,5.25,29.5,39.0,22.25,7.0,7
12.25,-2.75,-32.25,-4.25,12.0,34.25,12.0,5.5,7
27.25,4.75,-37.25,5.25,-3.75,27.0,14.5,14.75,7
49.25,9.5,-60.0,5.75,-1.75,33.0,21.5,4.75,7
78.5,9.25,-61.75,17.0,2.25,41.5,19.75,-12.75,7
86.75,12.75,-59.75,14.0,8.5,37.75,18.25,0.75,7
33.0,-13.25,-41.0,-17.25,2.5,30.5,9.75,3.5,7
11.0,-7.75,-51.5,-24.5,-0.25,41.25,10.75,2.5,7
-4.5,-17.0,-34.0,-32.0,-8.0,41.0,8.0,11.0,7
-33.75,-23.25,-7.0,-19.0,-4.5,35.5,-1.75,9.5,7
-31.75,-21.75,3.75,-21.25,0.5,24.25,-1.25,12.75,7
-55.75,-36.25,1.5,-21.0,-4.25,23.0,3.25,3.75,7
-61.0,-31.75,-8.75,-25.0,2.75,21.0,11.25,12.0,7
-57.25,-43.5,4.0,-25.75,5.75,28.25,-2.0,10.75,7
-46.5,-35.75,-0.75,-16.5,7.25,28.5,-6.25,7.5,7
-38.25,-31.25,2.5,-30.5,2.75,7.5,-1.25,0.75,7
-28.75,-23.5,-3.25,-28.5,5.25,10.0,1.5,-7.75,7
-17.5,-19.5,-14.5,-36.0,-0.75,-2.5,4.0,13.0,7
-12.5,-25.5,-6.5,-37.75,-1.5,-0.5,6.0,20.25,7
-7.75,-28.25,-8.5,-33.75,3.75,20.75,17.5,18.75,7
-36.5,-42.0,8.0,-18.25,14.75,11.5,11.5,18.0,7
-44.0,-39.75,5.0,2.0,27.75,18.75,24.5,12.5,7
-1.5,-18.5,0.75,-7.0,25.25,32.5,20.25,13.25,7
-0.75,-8.75,-5.75,-4.5,22.25,27.25,16.25,19.75,7
-2.5,2.5,-5.0,5.5,20.0,23.0,37.25,21.5,7
3.0,12.25,8.0,-5.25,26.0,25.0,37.75,12.0,7
-2.0,3.75,-4.0,-4.75,14.0,16.0,30.5,7.25,7
0.5,3.25,-3.0,-6.0,6.75,2.25,10.5,14.0,7
-25.75,0.0,1.25,-23.5,20.75,10.5,21.0,8.25,7
-19.75,6.0,3.25,-21.75,14.5,18.25,18.5,13.0,7
-25.75,-0.25,13.5,-21.25,13.5,10.0,10.25,26.5,7
-41.75,5.0,11.25,-19.75,32.75,11.0,19.0,27.0,7
-42.5,23.25,6.75,-27.5,25.5,3.75,5.0,23.25,7
-40.25,25.75,1.75,-25.75,30.75,13.5,36.25,28.0,7
-18.25,25.25,16.0,-19.0,30.25,18.25,37.0,29.0,7
-6.25,26.5,7.0,-24.25,29.5,9.0,32.5,22.25,7
28.25,34.25,-16.0,-6.5,24.25,22.5,41.75,32.0,7
76.75,36.75,-23.25,-6.5,13.5,29.75,31.0,24.25,7
73.25,37.25,-25.0,-4.0,26.5,24.25,43.25,8.25,7
60.75,29.5,-25.25,0.25,10.0,14.5,33.0,3.25,7
61.0,20.25,-30.0,-8.25,3.5,-0.25,28.75,-8.5,7
63.5,31.75,-24.75,-11.25,3.75,0.0,23.25,8.5,7
59.25,36.25,-30.75,-9.75,1.5,1.75,22.0,21.0,7
47.0,24.5,-13.75,-3.75,15.0,-15.0,34.75,7.25,7
48.0,3.0,-10.5,-2.5,10.75,-1.25,29.75,19.75,7
35.25,12.5,-18.75,0.5,9.5,14.0,38.75,-1.75,7
24.0,6.5,-9.25,4.5,14.25,10.25,23.5,-7.5,7
7.75,-4.25,-10.25,-0.75,22.25,19.5,31.5,59.25,7
-13.75,-21.0,-4.25,0.75,14.5,7.25,36.5,115.0,7
-30.0,-25.5,-3.25,-5.5,10.0,14.25,16.25,115.5,7
-42.0,-14.75,3.0,-19.5,18.0,19.5,36.0,101.25,7
-56.5,-26.25,4.25,-11.0,17.5,15.25,31.5,92.75,7
-76.0,-27.5,17.5,-12.5,21.0,18.0,31.5,48.75,7
-111.5,-36.75,42.5,-12.5,32.75,31.0,30.25,-25.75,7
-125.25,-28.0,23.0,-24.75,30.5,32.75,11.75,-103.5,7
-80.25,-42.5,4.75,-23.5,13.25,21.5,23.0,-219.0,7
-66.25,-39.25,8.75,-9.0,17.5,12.75,23.0,-182.5,7
-53.5,-9.5,-0.5,-8.25,14.0,7.5,24.75,18.5,7
-31.75,-9.75,-4.5,0.0,12.25,17.5,20.5,12.75,7
-10.25,9.75,-9.5,-16.75,22.0,13.25,20.5,21.75,7
2.75,15.0,-20.0,-23.0,25.5,20.25,31.0,45.0,7
3.5,19.75,-21.25,-7.25,22.25,22.0,21.25,3.0,7
7.75,22.75,-26.25,-7.0,28.5,19.5,17.75,39.75,7
20.0,38.25,-27.5,-30.75,28.75,17.5,14.25,22.75,7
12.75,29.75,-13.75,-27.0,31.0,11.0,16.0,34.25,7
-2.75,18.25,-17.0,-25.75,30.0,29.5,9.0,33.0,7
-2.75,27.25,-14.5,-43.5,24.5,21.0,5.5,30.75,7
-9.75,19.0,0.25,-30.25,37.5,33.75,18.0,28.0,7
-6.75,33.0,-0.25,-21.0,39.5,54.25,30.25,32.0,7
8.0,32.0,-12.75,-6.75,38.0,30.0,24.0,42.5,7
25.25,18.0,-8.75,-7.0,26.0,32.5,13.0,31.25,7
-11.0,20.25,13.25,-6.0,37.0,34.25,21.25,34.5,7
-30.0,15.25,0.0,-6.0,31.0,32.75,22.0,20.25,7
-22.5,8.25,-3.75,-26.25,29.25,40.75,18.25,19.5,7
-31.5,12.0,3.75,-34.75,30.75,45.0,19.5,18.0,7
-24.5,22.0,-1.75,-29.25,25.0,31.0,17.5,21.5,7
-36.5,21.75,2.75,-23.75,50.75,24.75,31.25,18.75,7
-24.0,22.5,-2.5,-24.5,43.5,43.5,32.25,21.5,7
-20.0,27.0,-13.25,-12.75,35.0,33.5,22.0,6.25,7
0.0,14.0,-21.75,-7.75,30.5,35.75,35.75,5.0,7
14.5,1.25,-20.5,-4.75,29.0,33.25,30.5,2.25,7
16.0,10.25,-20.5,-16.25,35.5,27.5,19.75,1.75,7
9.5,1.75,-16.25,-17.25,38.25,30.0,32.0,26.0,7
12.5,-4.25,-1.5,-4.75,42.25,28.5,19.75,7.5,7
13.75,-13.75,0.0,-4.75,37.25,34.75,21.25,22.75,7
-19.25,-17.0,6.75,-7.25,40.5,27.5,24.5,26.0,7
-62.25,-6.5,14.75,-5.75,28.25,26.25,25.75,13.5,7
-65.75,-6.5,18.5,-13.75,21.0,21.0,36.5,4.5,7
-34.0,-3.5,17.25,-12.75,33.25,18.0,22.25,7.5,7
-53.0,-14.0,17.5,-15.5,27.5,18.5,23.75,14.0,7
-49.5,-13.5,26.25,-15.0,9.5,14.5,18.25,0.75,7
-57.0,-7.25,20.75,-11.0,8.25,21.25,19.75,23.5,7
-49.25,-20.25,16.25,-21.0,18.75,23.75,24.5,15.0,7
-46.5,-16.75,6.5,-25.5,20.75,25.5,28.0,9.5,7
-39.75,-21.0,0.5,-18.75,12.25,29.25,23.0,21.0,7
-34.25,-28.0,6.0,-13.75,23.5,21.0,18.75,7.5,7
-19.75,-16.25,-2.0,-14.5,30.0,27.0,33.25,10.25,7
0.25,-4.75,-9.0,-5.75,29.25,28.25,23.25,21.0,7
5.5,-0.75,-14.5,-7.5,25.75,18.0,25.0,29.0,7
31.5,8.5,-4.25,-15.5,22.25,10.25,33.75,28.5,7
47.5,17.75,-9.5,-7.75,31.0,18.0,24.25,16.75,7
76.5,16.0,-21.5,-5.75,27.75,17.25,20.5,23.25,7
121.75,25.75,-47.75,-16.25,34.25,3.25,29.75,30.25,7
117.5,18.0,-52.0,-20.25,36.25,23.75,24.25,36.5,7
68.75,15.5,-37.5,-22.25,31.25,28.0,22.75,41.0,7
65.75,33.25,-36.75,-27.75,36.75,29.0,22.0,51.5,7
39.25,29.25,-26.75,-19.25,22.25,24.75,24.25,44.5,7
21.0,19.25,-17.75,-27.5,22.0,1.25,30.0,12.25,7
2.5,17.5,-8.5,-20.0,15.0,-10.5,13.25,11.0,7
-17.0,15.25,-17.0,-6.5,9.75,-8.5,14.5,17.0,7
-13.25,21.5,-7.25,-21.25,22.25,-7.0,24.75,26.25,7
-33.0,24.75,0.25,-16.25,14.0,-6.25,28.25,27.0,7
-43.0,14.5,-2.5,-9.0,14.5,5.75,36.25,23.0,7
-48.75,10.25,3.5,-8.25,-1.75,10.0,28.0,27.75,7
-46.5,6.0,5.0,-21.0,-8.0,15.5,27.0,40.0,7
-51.0,9.25,1.5,-25.25,-1.75,23.75,33.0,55.0,7
-44.25,19.0,-12.5,-32.75,1.75,25.75,32.0,65.75,7
-46.25,8.75,-0.5,-45.25,7.25,29.75,36.5,67.75,7
-49.25,13.25,3.75,-33.5,2.75,26.5,33.75,47.25,7
-57.75,15.75,10.5,-24.5,0.75,39.25,36.75,26.5,7
-28.5,12.75,-5.0,-9.25,-3.5,41.75,35.0,1.5,7
-4.0,23.25,3.5,6.5,4.75,36.0,23.0,0.75,7
-3.5,23.5,8.0,-2.5,-1.0,42.5,32.0,-8.75,7
5.5,14.5,-10.0,4.0,7.25,37.0,26.5,-36.5,7
-14.75,-1.5,-12.0,-11.0,10.5,28.25,26.0,15.25,7
-20.75,10.0,-26.0,-14.75,1.0,27.75,24.75,51.0,7
-28.25,11.75,-0.75,1.25,15.75,25.0,11.0,15.25,7
-23.5,7.25,0.25,-18.5,9.75,25.75,18.25,1.5,7
-33.0,3.5,-2.5,-4.0,10.75,31.25,13.25,-31.75,7
-42.5,10.5,6.5,-7.5,6.5,34.5,6.25,-98.75,7
-52.5,20.0,15.75,-4.5,8.25,33.75,14.0,-103.5,7
-35.25,9.0,19.5,-2.0,13.75,26.5,24.75,17.25,7
-10.75,13.0,11.75,-10.75,21.5,26.75,25.25,76.5,7
-14.25,9.75,1.75,13.0,33.0,31.75,35.25,45.0,7
17.25,15.0,-16.5,-14.0,27.25,15.75,29.75,55.0,7
38.25,16.5,-22.5,-19.0,34.0,3.75,22.5,46.25,7
20.75,13.75,-15.5,-22.0,25.5,19.5,33.25,41.25,7
17.0,-1.0,-21.5,-27.0,36.75,4.0,21.25,26.5,7
20.0,-20.25,-21.75,-12.75,44.5,-12.5,18.5,28.5,7
17.5,-20.75,-17.5,-13.75,43.0,-13.5,22.25,33.25,7
28.75,-28.5,-21.0,0.0,48.75,-13.5,24.25,16.0,7
17.5,-19.25,-22.25,-1.5,30.5,16.5,25.75,20.75,7
27.25,-15.25,-29.25,-20.75,24.75,18.0,29.25,4.5,7
15.75,-7.75,-32.25,-19.75,22.0,17.0,32.75,-11.25,7
2.25,0.0,-29.0,-21.5,23.5,22.25,33.0,-18.25,7
10.0,-13.25,-17.5,-34.5,16.0,11.25,29.75,10.25,7
-1.25,-17.75,-13.75,-29.75,17.5,6.5,19.0,12.0,7
-3.75,-21.25,6.0,-33.75,21.75,9.25,25.0,1.5,7
-26.75,-17.5,13.0,-33.75,8.5,17.5,8.5,11.75,7
-41.0,-20.75,10.25,-19.5,-6.5,6.25,12.5,10.25,7
-72.25,-11.75,11.0,-21.0,-7.25,8.5,27.0,50.5,7
-107.25,-15.25,32.25,-18.5,-4.0,17.25,18.25,89.0,7
-96.0,-34.25,33.75,-5.0,0.0,25.75,31.25,104.25,7
-80.5,-22.5,22.75,-4.5,7.0,41.0,26.5,85.0,7
-69.0,-15.75,28.5,-7.25,6.25,29.0,14.25,62.75,7
-50.75,-18.25,17.5,1.0,2.25,37.75,20.75,26.25,7
-41.25,-13.75,0.5,2.75,7.0,39.75,26.0,-54.5,7
-21.75,-12.75,-5.75,-6.0,18.5,47.25,34.5,-94.0,7
6.25,-3.0,-15.75,-1.75,8.75,58.0,40.5,-162.75,7
21.5,-2.25,-21.75,1.75,8.5,54.75,28.25,-213.75,7
39.5,-4.25,-11.75,6.75,17.0,54.5,29.75,-78.5,7
46.0,7.75,-20.0,2.5,14.75,43.25,33.25,24.0,7
36.25,11.0,-31.0,-11.25,36.0,43.75,28.0,-4.25,7
38.0,19.0,-29.75,4.0,40.25,56.0,38.5,49.0,7
46.5,21.75,-16.0,10.5,32.0,63.0,25.0,44.75,7
33.0,30.5,-15.75,1.25,51.25,57.5,38.75,38.25,7
39.0,40.0,-13.5,12.25,52.5,34.0,35.0,33.5,7
56.25,37.5,-26.25,0.0,47.25,22.25,22.0,31.5,7
49.75,17.5,-25.0,-6.0,44.25,36.0,16.5,60.0,7
11.25,9.75,-15.0,-13.25,31.5,51.5,5.0,38.5,7
5.0,30.5,-13.25,-26.5,33.25,44.5,20.25,36.75,7
0.5,22.0,10.0,-4.75,16.75,40.25,22.5,25.5,7
-16.75,2.25,-0.25,-19.75,9.75,24.25,26.25,24.25,7
-30.75,11.5,5.25,-23.25,4.0,26.25,17.25,16.0,7
-31.5,11.5,-1.5,-21.5,3.0,31.25,15.0,23.0,7
-19.0,17.5,-6.25,-25.0,16.0,30.75,11.5,33.5,7
-19.25,25.0,-11.0,-12.75,20.0,26.0,7.5,27.5,7
4.5,33.0,-19.0,-20.25,18.25,26.25,17.5,32.75,7
8.5,37.5,-14.75,-17.25,20.75,23.25,4.25,16.75,7
7.25,30.75,-26.75,-19.5,25.0,26.25,7.0,14.5,7
13.5,42.25,-27.25,-18.25,24.25,27.0,9.0,16.25,7
25.25,28.5,-23.75,-27.0,35.5,33.75,9.5,1.75,7
15.75,21.0,-24.75,-19.5,25.5,36.5,20.25,6.25,7
-4.5,16.5,-7.75,-14.0,2.0,16.25,31.25,4.75,7
-36.0,0.75,15.5,-10.5,-3.5,24.75,29.5,12.75,7
-35.75,15.0,5.75,-10.5,5.25,1.75,15.25,20.5,7
-21.0,11.25,6.0,-5.75,-0.25,-7.75,13.25,12.5,7
-44.5,5.5,12.75,-4.5,-8.0,23.25,10.75,28.5,7
-41.25,2.5,21.0,-11.5,-1.5,15.75,4.5,25.75,7
-54.5,-6.25,17.0,-4.0,-9.25,0.75,-0.25,1.0,7
-47.25,2.0,12.75,-10.25,-10.75,-13.0,19.0,5.25,7
-37.25,1.0,15.75,-12.25,-11.25,-7.0,12.5,-4.5,7
-47.25,2.5,-2.25,-33.0,-1.5,3.5,8.5,-26.75,7
-32.5,4.25,-7.0,-49.25,1.0,17.25,13.5,-43.75,7
-25.0,7.5,-7.75,-49.0,15.0,9.5,16.0,-36.25,7
-19.25,16.0,-13.25,-45.75,21.25,12.25,20.75,-2.0,7
-4.25,15.0,-21.5,-45.5,36.0,38.75,26.5,4.0,7
11.5,10.25,0.25,-25.75,36.25,29.5,19.25,27.0,7
19.0,2.5,-13.75,-32.5,30.5,21.5,12.25,55.25,7
44.5,4.5,-40.25,-35.25,63.0,16.5,7.25,40.0,7
81.0,-1.0,-40.25,-22.25,73.25,25.5,5.75,25.0,7
82.0,0.75,-41.5,-19.25,62.75,33.5,6.25,27.25,7
59.5,-2.5,-33.5,-0.75,54.25,23.5,7.25,17.25,7
56.75,-11.5,-40.25,-13.25,59.25,29.0,9.0,19.5,7
49.0,-8.75,-39.0,-15.5,61.25,22.0,10.0,33.5,7
36.75,-14.75,-32.75,-8.75,43.0,18.75,21.5,28.0,7
7.75,-18.5,-21.75,-10.75,33.75,30.0,18.25,29.0,7
-5.75,-20.75,-14.0,-12.75,34.75,35.5,23.25,2.75,7
-6.75,-19.5,-4.25,-22.5,16.5,34.5,16.5,6.25,7
-17.25,-20.5,-2.0,-28.25,16.25,24.5,22.75,26.25,7
-15.75,-18.0,-2.0,-17.5,15.0,10.0,39.25,18.25,7
-21.75,-24.5,10.5,-13.0,15.0,20.5,24.25,13.5,7
-43.25,-39.25,5.75,-23.25,-1.25,17.75,27.0,20.0,7
-44.5,-38.25,-0.25,-22.25,-5.25,9.75,40.5,25.75,7
-35.75,-22.5,5.5,-24.0,10.5,17.5,31.5,13.25,7
-57.0,-35.75,5.75,-14.25,-6.25,18.0,25.25,7.0,7
-79.5,-27.25,21.25,5.75,-15.75,15.75,39.75,6.75,7
-77.75,-17.25,24.5,5.25,3.0,14.75,38.0,41.5,7
-33.75,-20.5,2.75,-6.0,26.25,25.5,15.5,87.5,7
-27.0,5.0,-4.75,-0.5,26.25,27.0,27.5,51.0,7
-5.0,-10.0,-4.25,5.75,41.0,46.0,27.75,38.0,7
13.5,1.25,-13.75,10.5,43.5,48.5,14.0,23.75,7
14.25,-1.0,-22.25,13.25,58.5,38.25,34.0,1.75,7
28.0,-9.5,-11.0,13.75,63.25,29.25,30.25,2.5,7
9.5,4.75,-9.0,7.0,52.5,-2.75,23.25,-50.5,7
16.0,1.0,-11.5,-2.5,41.0,8.75,27.0,-105.75,7
5.75,2.0,-6.0,-9.5,31.0,10.25,18.75,-51.25,7
0.0,-5.75,-2.5,-11.0,34.75,23.5,39.75,51.25,7
12.5,15.75,-9.0,0.75,41.5,44.75,35.25,42.25,7
16.75,17.25,-12.5,-4.25,58.25,38.5,39.75,52.0,7
20.25,12.75,-2.0,-9.5,49.75,29.0,47.75,57.75,7
16.0,15.75,-0.5,-5.0,57.5,21.25,34.75,48.0,7
28.75,18.0,-13.75,-7.0,75.5,34.75,35.0,39.75,7
28.5,16.75,-22.25,-5.75,58.25,34.25,38.75,33.5,7
-3.75,16.75,-18.25,-8.25,35.5,32.0,51.5,61.0,7
-11.75,17.5,-17.5,-14.0,35.25,35.0,47.0,37.5,7
-8.0,20.5,-17.5,-8.0,38.75,30.0,39.25,36.5,7
-22.25,16.75,-16.5,-8.75,40.25,22.25,33.5,78.0,7
1.0,4.75,-23.5,-17.75,43.75,31.0,31.25,78.75,7
25.25,9.5,-38.5,-24.0,58.0,40.5,22.25,37.5,7
40.0,17.5,-33.25,-24.75,65.75,38.0,29.25,52.0,7
55.75,23.5,-32.0,-20.75,67.5,44.5,31.25,38.0,7
59.5,21.0,-48.75,-15.75,70.25,47.0,31.25,5.5,7
44.5,17.5,-31.0,-11.25,53.25,29.0,33.25,-17.25,7
21.75,16.0,-33.5,-19.75,39.25,20.75,15.75,-65.75,7
8.5,19.5,-23.0,-14.75,22.0,18.25,20.75,-29.0,7
-14.0,7.5,-13.0,-14.25,13.75,5.25,16.75,26.0,7
-40.0,12.0,-1.5,-14.0,-10.75,-6.25,19.0,20.25,7
-65.25,14.5,20.75,-6.25,-44.0,-1.75,18.25,10.0,7
-89.25,8.25,21.75,-15.75,-50.0,-2.5,25.0,12.0,7
-86.75,14.75,30.75,-13.0,-18.5,5.5,35.5,27.75,7
-68.0,9.5,31.25,-14.75,-24.25,20.75,34.0,67.25,7
-55.0,10.0,33.25,-20.75,-25.75,22.0,28.5,99.0,7
-38.75,0.75,30.5,-13.0,-3.0,22.5,27.25,102.5,7
-39.0,3.0,17.75,-10.5,-14.25,15.5,44.5,94.75,7
-28.25,15.75,16.0,-28.5,-5.5,17.25,25.5,62.25,7
-15.25,15.25,19.0,-33.75,9.5,16.0,24.5,29.0,7
-14.75,26.25,17.75,-32.75,18.25,24.0,28.75,-30.75,7
2.75,20.75,15.0,-31.0,40.0,23.75,19.0,-127.75,7
15.25,23.25,-6.5,-22.5,49.0,39.0,25.5,-140.75,7
19.75,37.0,0.25,-14.5,60.75,46.5,27.75,-62.75,7
34.0,39.0,-8.0,-7.25,73.0,54.0,14.75,-31.5,7
22.75,33.75,-21.0,-21.25,68.75,51.25,13.75,11.0,7
20.0,11.75,-16.5,-23.5,66.5,27.25,12.25,61.25,7
28.0,12.25,-29.5,-26.5,76.25,37.25,-9.75,41.0,7
43.5,6.0,-33.0,-36.25,75.25,30.5,3.0,55.5,7
43.25,0.0,-38.0,-25.5,34.25,29.25,6.0,47.0,7
3.5,9.25,-24.75,-18.25,32.75,18.0,9.5,46.25,7
5.5,6.25,-8.25,-15.0,21.25,12.75,30.0,37.0,7
-21.5,13.5,-10.25,-9.75,-2.0,26.25,24.5,20.25,7
-41.25,22.75,-6.5,-10.5,4.5,8.5,14.75,31.75,7
-41.75,12.0,-2.5,-12.0,-22.25,6.5,14.75,28.0,7
-43.25,15.0,-9.25,-10.25,-23.0,11.5,25.25,35.75,7
-37.5,25.25,7.75,-1.5,2.25,21.5,23.5,22.75,7
-32.25,17.75,0.25,-2.0,1.25,15.5,19.0,32.25,7
-32.25,-2.5,-6.0,-16.75,-2.0,7.25,15.25,29.0,7
-28.75,-15.25,-8.75,-11.25,15.25,6.5,30.0,30.25,7
-20.75,-9.0,-10.25,-7.75,23.75,17.0,39.75,32.0,7
-12.5,0.25,-7.75,-18.75,27.25,27.75,20.0,14.0,7
8.5,-11.0,-21.5,-18.25,26.25,23.0,20.25,15.0,7
-11.25,-15.25,-11.0,-20.75,10.25,15.75,26.75,2.75,7
-31.0,-15.25,5.0,-19.0,-14.75,9.5,17.0,-1.25,7
-41.25,-19.5,15.75,-27.75,-9.75,28.75,28.25,16.0,7
-28.25,-21.75,7.25,-36.75,12.75,26.5,25.5,16.0,7
-8.5,-9.5,2.5,-28.75,-2.0,30.5,28.25,10.0,7
-31.75,-1.0,7.75,-21.5,-6.5,34.5,36.75,19.75,7
-21.5,-16.5,12.5,-18.0,-1.75,25.75,33.75,8.0,7
-28.25,-13.75,19.0,-12.5,-17.0,30.5,26.0,11.75,7
-38.0,-9.75,21.25,-10.25,-26.5,15.5,23.75,22.5,7
-37.5,-5.0,16.75,-3.0,-30.25,-1.0,30.0,9.25,7
-53.75,-6.25,19.5,5.0,-33.75,-7.25,38.25,-4.0,7
-55.75,-8.0,24.0,15.25,-20.75,1.0,40.75,-4.75,7
-54.5,3.0,27.0,18.0,-17.25,21.75,33.5,19.0,7
-34.5,4.75,23.75,8.0,7.75,33.75,29.75,3.75,7
-20.75,-9.75,6.0,-0.25,21.75,18.75,37.75,0.25,7
-11.5,-7.0,-5.75,-6.5,24.5,32.0,33.75,20.0,7
-8.0,-0.75,-8.0,-13.0,47.75,36.25,30.5,31.0,7
19.5,-4.0,-10.5,-21.0,97.5,21.25,26.5,34.0,7
64.0,-4.25,-46.0,-26.75,121.25,37.25,30.25,34.0,7
44.25,-8.75,-34.0,-37.5,84.75,34.75,35.5,29.75,7
32.5,-2.25,-42.25,-27.5,99.75,25.75,22.5,27.75,7
48.25,4.25,-50.25,-16.25,82.0,29.75,15.0,18.0,7
27.5,-0.25,-38.75,-24.0,76.75,28.0,20.0,15.5,7
31.0,-0.75,-40.0,-16.75,74.0,15.5,21.75,25.5,7
14.5,9.0,-19.25,-19.75,56.0,20.25,6.0,9.0,7
6.25,11.25,-14.5,-21.25,57.5,19.5,4.25,13.5,7
1.75,17.0,-1.25,-15.0,30.5,16.75,14.75,19.5,7
-15.0,28.25,-10.25,-16.75,17.75,12.0,17.5,23.75,7
-19.5,21.75,7.0,-20.75,2.75,7.0,16.5,17.25,7
-37.25,18.75,6.0,-15.0,-13.75,3.25,10.25,1.5,7
-51.0,25.0,0.75,-13.0,-31.25,24.0,29.25,-9.75,7
-60.25,29.0,16.75,-13.25,-16.0,28.75,30.25,-12.25,7
-42.75,24.5,12.75,-17.5,-28.5,24.5,11.25,-6.5,7
-52.25,34.75,21.25,-18.5,-59.75,32.0,16.5,-16.75,7
-87.5,29.5,25.25,-4.75,-71.0,4.0,27.5,-22.25,7
-73.75,14.25,24.25,-9.0,-47.0,13.25,25.0,-19.75,7
-35.75,7.25,7.75,-6.75,-16.25,18.5,16.25,-13.75,7
-37.5,-1.0,1.25,-0.25,-7.0,24.25,17.25,-6.0,7
-24.5,17.25,1.75,4.75,29.0,37.25,27.75,21.25,7
-3.25,22.75,-3.5,8.75,40.0,34.0,27.0,40.5,7
5.25,8.25,4.0,5.0,42.5,44.25,23.75,16.5,7
0.5,-13.25,-17.0,-1.5,61.5,34.25,31.75,21.0,7
-4.75,-6.25,-6.0,0.0,73.75,36.75,34.75,28.0,7
4.0,6.5,11.75,7.75,71.75,40.5,39.25,28.25,7
12.25,-1.25,1.25,23.25,69.75,41.0,47.75,43.25,7
24.75,15.0,-1.25,19.0,59.75,48.0,37.25,35.0,7
8.5,10.5,-0.75,-6.5,35.25,33.0,16.0,22.25,7
5.75,-3.25,1.25,-4.25,30.0,31.0,27.25,16.25,7
0.25,3.0,-14.75,-6.75,24.75,36.0,25.0,22.0,7
-4.75,-4.0,-14.0,-4.75,36.75,24.5,19.5,39.75,7
21.25,-9.75,-18.0,-10.25,62.75,22.0,24.25,53.75,7
23.25,-14.5,-21.75,-16.5,37.0,18.75,23.0,56.5,7
-5.0,-11.5,-6.5,-18.5,30.0,31.5,26.0,46.75,7
-1.5,-3.25,-11.75,-26.0,41.5,32.5,28.0,26.5,7
2.25,-3.5,-11.75,-35.25,46.5,24.75,27.25,0.0,7
-0.5,-7.5,-17.75,-48.75,36.25,36.5,20.5,-5.25,7
14.0,-12.0,-19.25,-40.0,43.25,36.0,21.0,-11.25,7
19.5,-5.75,-20.0,-44.5,64.0,39.0,7.0,-28.25,7
14.75,-19.5,-19.5,-41.5,69.75,32.75,0.75,-60.75,7
13.75,-14.75,-19.0,-38.0,81.75,35.0,4.75,-60.75,7
27.0,-9.25,-28.25,-23.5,71.0,19.0,19.75,30.5,7
23.0,-12.0,-20.25,-20.75,69.25,18.0,14.5,58.0,7
25.5,-11.0,-24.0,-26.0,58.0,23.0,5.5,42.25,7
14.75,-30.25,-25.5,-25.0,46.25,14.5,25.0,58.5,7
17.75,-20.0,-15.25,-24.75,38.0,25.75,16.5,88.25,7
11.25,-15.0,-20.5,-12.0,14.5,14.0,16.5,112.25,7
-27.25,-2.25,-7.0,-7.25,-25.5,10.5,24.25,59.5,7
-47.0,-4.5,7.25,2.0,-43.25,0.75,26.75,26.5,7
-50.75,-16.5,13.75,-5.25,-29.5,-21.75,28.5,-24.25,7
-44.75,-2.25,14.25,-5.25,-40.0,-22.25,32.75,-68.0,7
-53.25,-7.5,14.25,-4.75,-38.5,-5.0,22.25,-78.25,7
-51.75,-0.75,17.0,-0.5,-34.5,10.0,17.5,-160.5,7
-37.75,2.75,7.75,0.25,-20.75,9.5,32.75,-196.0,7
-38.25,11.0,2.75,-9.25,-10.25,12.0,29.75,-56.0,7
-30.0,15.75,-6.25,-3.5,1.25,31.0,20.0,37.5,7
-22.5,5.75,-6.0,-2.75,21.25,51.25,17.5,33.25,7
-9.0,5.75,-2.25,-6.0,43.0,52.75,17.5,79.75,7
5.0,2.5,-1.25,0.25,71.25,42.75,18.25,65.25,7
8.75,7.0,-2.25,-8.0,84.5,30.25,18.75,74.5,7
19.0,-14.25,-15.5,-15.25,82.0,40.25,20.25,73.25,7
37.5,-13.75,-27.5,-23.75,77.25,24.75,14.0,65.0,7
36.75,-1.75,-16.5,-41.0,82.25,37.25,12.75,78.0,7
49.0,-10.0,-31.0,-43.25,108.5,41.0,1.75,74.5,7
82.75,4.0,-47.0,-45.5,138.5,33.75,5.5,93.75,7
69.5,14.0,-40.0,-31.25,99.25,34.75,12.25,69.5,7
49.0,17.0,-32.0,-30.5,73.5,21.0,7.25,61.25,7
29.25,14.5,-26.25,-34.5,64.25,21.0,16.25,49.5,7
0.75,7.25,-18.25,-34.0,28.75,19.5,10.5,32.5,7
-5.0,7.25,-13.0,-41.5,8.75,18.75,10.5,32.5,7
-23.5,15.75,-5.75,-27.75,-13.5,21.0,13.25,27.25,7
-37.0,17.0,-0.75,-22.0,-20.75,46.5,17.0,20.25,7
-48.75,11.5,3.75,-8.25,-35.5,42.5,35.25,15.0,7
-45.0,17.25,-0.25,1.0,-19.5,30.75,40.5,28.0,7
-40.5,9.5,-2.0,-8.0,-9.25,34.25,28.0,55.75,7
-20.5,14.25,3.5,-16.75,-8.5,19.5,32.0,89.0,7
-17.0,10.5,-6.5,-19.0,0.25,23.25,20.0,66.25,7
-25.5,-11.0,-19.5,-28.75,17.5,26.25,26.25,52.25,7
-9.75,3.0,-13.5,-24.75,30.25,29.75,34.5,25.5,7
-15.25,17.5,-1.5,-10.5,1.25,26.75,25.75,-11.25,7
-35.75,13.0,17.5,5.25,-20.5,24.0,41.75,-59.25,7
-39.75,9.5,12.5,-16.5,-4.5,16.75,32.5,-101.5,7
-9.75,3.5,-5.5,-13.25,21.0,18.25,30.25,-61.75,7
-3.75,14.5,0.25,-1.25,15.5,27.5,34.75,-2.5,7
6.0,13.0,2.25,-15.0,19.75,29.25,35.5,24.75,7
-3.75,4.25,0.0,-13.5,15.5,26.5,43.0,60.25,7
-16.5,14.25,0.5,-20.5,23.0,13.5,38.25,91.0,7
-16.25,14.0,-2.25,-15.5,6.0,26.5,34.75,60.75,7
-40.0,19.5,10.25,-7.75,-6.25,31.75,36.0,48.25,7
-26.0,9.0,23.5,10.25,1.0,29.75,47.75,40.75,7
-31.75,-6.0,10.75,2.5,-15.0,33.75,38.5,5.0,7
-27.25,3.0,9.75,4.75,-33.5,31.5,39.0,-31.5,7
-12.5,-2.25,23.75,6.0,-30.75,29.0,41.75,-85.5,7
-8.5,5.0,17.0,-9.25,-10.5,29.25,28.25,-146.5,7
-16.75,3.5,5.25,0.0,-9.0,32.0,34.0,-83.25,7
-24.25,-11.0,-5.25,-9.5,32.25,42.75,30.5,31.25,7
13.5,-12.25,-18.5,-28.5,78.0,42.5,22.25,20.25,7
29.25,-30.5,-23.75,-38.5,91.75,38.5,22.0,34.0,7
13.5,-26.25,-25.5,-21.75,80.0,35.75,22.25,32.0,7
12.75,-25.25,-38.0,-26.5,92.25,27.5,18.25,33.25,7
36.0,-24.5,-27.0,-20.0,100.25,22.75,26.75,50.25,7
28.75,-17.75,-33.5,-24.75,79.5,30.0,17.5,35.25,7
22.25,-23.0,-33.75,-31.25,76.0,30.5,14.5,39.75,7
12.0,-14.25,-28.25,-5.25,71.5,15.75,9.25,26.25,7
-3.5,-23.0,-33.25,-24.25,57.5,-4.25,13.75,39.25,7
9.25,-12.0,-18.0,-20.75,45.5,-6.0,28.0,34.0,7
2.0,-5.25,-12.5,-11.25,37.25,3.5,18.75,16.25,7
-0.5,-11.25,-10.0,-4.0,11.5,2.75,17.25,14.0,7
-7.75,-1.5,-23.75,-11.75,-7.75,9.0,15.0,21.5,7
-24.25,3.25,-8.75,-22.25,-2.5,-3.25,19.0,28.75,7
-31.5,0.75,-2.5,1.5,-18.0,1.0,23.5,25.25,7
-41.75,-2.25,-0.25,-7.5,-35.5,9.75,31.25,17.5,7
-56.0,16.5,27.0,-0.5,-70.0,-9.5,27.5,5.75,7
-74.0,15.0,32.75,-0.25,-88.0,-6.0,33.0,10.25,7
-55.75,20.25,12.5,-25.0,-32.25,-2.0,34.25,11.75,7
-29.75,20.25,11.0,-16.5,-24.0,11.5,30.75,8.0,7
-27.0,27.25,-2.25,-8.0,-5.25,12.25,39.0,7.5,7
-25.0,36.75,-10.75,-23.0,14.0,-8.5,30.25,9.0,7
-11.0,11.0,-2.75,-17.0,23.25,-3.75,26.0,18.0,7
-0.25,14.5,-18.5,-30.75,53.5,16.5,19.0,33.0,7
12.75,4.0,1.5,-18.25,67.75,27.5,21.75,44.75,7
20.0,4.5,-4.5,5.75,75.75,40.25,21.25,68.0,7
7.0,5.75,-3.5,-19.5,80.75,50.0,28.0,73.0,7
20.75,0.25,-6.75,-24.25,85.75,45.75,24.0,54.0,7
13.0,16.0,-8.0,-21.0,48.0,50.0,22.5,43.25,7
10.25,13.25,-4.25,-23.25,44.5,50.75,27.0,21.0,7
10.75,20.5,-16.75,-28.5,40.5,43.25,22.75,21.25,7
-1.5,20.5,-17.0,-27.0,26.0,40.0,24.5,23.0,7
-8.5,12.5,-24.25,-20.0,48.5,38.5,-5.0,38.5,7
0.5,-3.0,-21.0,-11.5,61.75,34.5,4.0,37.25,7
0.5,-2.25,-27.75,-7.25,34.5,32.25,13.75,9.5,7
-11.0,8.0,-17.0,-9.75,15.25,26.0,18.0,11.0,7
-2.25,4.5,-20.75,-21.25,9.5,32.25,20.75,5.25,7
-25.0,14.75,-13.75,-16.75,-3.25,36.75,15.75,-27.0,7
-7.5,-3.75,0.5,0.5,15.75,32.5,6.0,-12.25,7
3.75,11.75,-11.75,4.25,25.0,35.25,2.5,36.5,7
7.5,12.0,2.75,2.75,24.0,37.75,15.5,32.5,7
7.25,9.75,-17.0,-15.5,25.0,39.75,20.75,22.0,7
-2.5,0.75,-26.0,-26.25,59.75,31.25,29.75,52.0,7
22.75,-4.5,-9.25,-12.0,66.25,21.5,15.25,48.0,7
13.25,10.25,-13.75,-18.25,70.0,44.75,16.25,19.25,7
8.0,-15.75,-5.0,-11.0,72.75,45.25,15.0,26.5,7
4.25,-15.0,-12.25,-17.0,56.0,33.25,15.25,27.75,7
5.5,-8.25,-3.75,-23.25,55.75,43.5,13.75,23.0,7
3.0,14.25,-3.5,-11.25,34.5,27.75,4.75,-3.5,7
-24.5,25.5,9.5,-6.5,-24.0,14.75,24.25,-12.75,7
-23.5,43.25,34.0,0.75,-32.75,6.0,25.0,-7.75,7
-26.75,41.75,24.0,-1.75,-6.25,8.25,24.0,-15.5,7
-36.0,28.25,27.75,0.0,-31.5,15.5,39.25,9.5,7
-47.5,34.75,29.5,9.75,-11.5,25.0,27.25,31.25,7
-34.75,31.0,35.0,8.5,-23.0,19.0,29.5,38.0,7
-28.75,55.75,36.0,-1.5,-35.25,10.25,40.5,24.75,7
-36.0,59.75,28.75,1.75,-33.75,12.5,35.0,18.25,7
-37.25,54.5,33.75,15.75,-28.5,16.25,39.25,6.75,7
-35.5,37.75,20.75,8.25,-11.0,31.5,25.5,-18.0,7
-24.5,39.0,17.0,-2.0,-7.5,25.5,33.5,-37.75,7
-29.75,36.0,3.5,-7.5,27.25,13.0,37.25,-61.75,7
-12.25,30.0,-15.25,-22.5,35.25,25.5,26.0,-14.75,7
-7.25,21.75,-12.75,-27.0,58.75,37.25,26.5,32.75,7
-0.25,1.0,-4.25,-16.5,71.5,28.75,15.75,19.75,7
12.25,5.75,-19.0,-13.75,74.25,24.0,12.75,34.5,7
21.75,0.25,-28.25,-30.0,115.25,30.5,9.5,41.5,7
30.5,-10.0,-41.5,-42.5,138.75,30.75,10.25,25.0,7
27.5,-13.0,-45.75,-32.5,112.75,28.5,11.5,32.5,7
15.25,-21.75,-43.0,-43.25,96.5,28.0,3.5,38.25,7
15.75,-27.25,-33.5,-39.75,80.75,20.25,8.5,33.25,7
8.0,-20.25,-31.5,-33.75,56.25,7.25,10.75,39.25,7
0.25,-26.0,-36.0,-34.5,42.5,-3.5,3.75,48.0,7
-11.0,-20.25,-22.5,-30.5,17.5,-4.75,11.25,26.5,7
-24.25,-11.75,-25.25,-30.25,-13.0,-1.0,18.25,15.75,7
-25.75,-12.75,-7.25,-19.75,-30.5,-4.0,26.25,1.75,7
-38.0,-4.0,-2.75,-20.75,-39.0,3.25,26.5,-10.75,7
-32.25,-3.75,-7.5,-5.75,-38.75,10.5,25.0,5.0,7
-35.5,-1.0,-4.5,-18.25,-25.5,8.0,26.75,16.25,7
-40.75,-7.5,-1.5,-20.75,-29.25,20.0,22.0,18.25,7
-27.5,-5.75,-8.5,-9.75,-15.0,20.25,38.5,18.75,7
-20.75,2.5,-11.0,-14.25,-6.25,21.0,27.25,24.0,7
-18.5,-1.75,-2.25,-21.75,-19.75,5.75,43.25,5.75,7
-27.0,7.0,6.0,-12.0,-38.25,-10.25,44.25,3.25,7
-14.75,5.25,13.25,-13.25,-7.75,12.0,25.25,14.5,7
-7.75,-1.25,12.25,-11.25,36.75,41.75,36.0,-3.0,7
-8.5,-0.75,2.5,-4.0,31.0,34.25,19.75,27.5,7
11.0,-6.25,-10.0,-13.0,39.5,19.25,25.75,40.0,7
0.75,-1.5,1.75,-10.0,44.25,33.5,21.25,22.0,7
-1.5,12.0,9.0,0.0,50.25,33.25,28.5,46.25,7
6.0,7.0,19.0,0.0,39.5,36.25,38.0,44.25,7
-7.25,2.5,4.75,-10.25,26.75,39.0,25.0,21.5,7
-6.0,14.25,2.25,-12.5,13.25,26.5,25.5,2.0,7
-16.0,13.75,-4.5,-16.25,-10.0,23.5,35.5,2.25,7
-24.0,17.25,-6.5,-9.75,-5.25,22.75,36.5,18.5,7
-31.75,12.5,1.0,-3.5,-8.25,29.0,18.25,48.0,7
-28.25,3.5,-5.75,-7.75,-29.0,24.75,23.25,52.0,7
-24.5,2.5,7.25,-6.0,-11.5,30.25,21.0,38.75,7
-17.25,10.5,-1.5,-11.5,15.25,22.0,13.0,69.0,7
-3.0,-7.5,-7.5,-19.25,57.75,32.5,-0.25,31.75,7
-1.0,-21.0,-19.0,-18.0,67.5,35.25,5.75,-26.25,7
-2.25,-20.75,-12.5,-22.5,51.75,16.25,14.25,-23.25,7
-13.5,-36.5,-15.0,-30.0,74.75,32.5,2.5,-67.0,7
1.5,-39.25,-15.0,-32.0,55.75,22.5,7.75,-132.75,7
2.0,-33.0,-19.5,-18.5,77.5,25.5,10.0,-75.0,7
-5.5,-18.0,-33.0,-9.5,89.25,27.0,26.75,4.25,7
6.5,-19.0,-21.5,-34.75,75.0,27.25,24.5,5.0,7
13.25,-31.5,-17.5,-23.25,75.0,41.25,20.5,34.75,7
10.5,-11.5,-10.75,-15.75,76.0,22.75,24.25,30.5,7
-4.25,-11.25,-28.25,-26.0,78.25,11.75,31.25,37.75,7
-10.75,-20.25,-22.0,-24.25,58.25,20.0,35.25,40.25,7
-22.75,0.75,-6.5,-25.75,57.0,30.25,42.0,13.0,7
-13.0,6.75,5.25,-12.25,25.0,21.75,41.5,6.5,7
-11.0,6.25,13.25,-7.0,5.25,11.5,34.0,7.0,7
-19.25,26.0,11.25,-9.5,-11.0,10.5,35.5,-4.5,7
-21.5,19.5,25.25,-0.75,-68.75,-2.25,38.25,-18.5,7
-42.5,27.75,32.5,3.25,-90.5,-2.25,51.75,34.0,7
-36.0,34.0,30.75,13.0,-48.75,14.25,32.5,59.25,7
-26.75,22.25,31.5,5.0,-36.25,19.75,41.75,35.75,7
-22.5,33.75,21.75,5.0,-29.75,42.25,54.25,30.75,7
-29.75,11.75,10.75,6.5,-9.0,49.25,43.75,5.0,7
-20.75,-3.25,5.0,-7.25,-5.5,39.75,54.5,-7.5,7
-5.5,-3.5,4.25,8.0,34.75,55.5,53.25,-16.5,7
2.25,-15.5,6.75,-5.0,47.0,57.5,47.25,-54.75,7
8.25,-27.0,-16.5,-2.5,62.0,40.25,32.75,-6.75,7
-1.25,-33.75,-19.5,-3.75,78.0,50.75,41.75,102.25,7
7.75,-20.75,-17.25,-25.0,77.25,48.25,42.5,114.0,7
11.75,-16.0,-31.25,-27.75,91.0,47.0,31.5,93.0,7
6.25,-22.75,-34.5,-28.0,86.5,57.25,29.25,81.25,7
7.25,-19.0,-34.0,-38.75,73.25,34.5,20.75,52.5,7
5.5,-22.75,-27.0,-36.5,72.0,38.75,16.0,51.0,7
14.0,-29.0,-33.75,-35.0,95.5,45.0,23.0,34.75,7
8.25,-30.25,-46.5,-42.5,115.0,49.0,8.75,-21.0,7
-3.5,-30.25,-29.75,-37.0,61.5,43.5,4.75,-49.5,7
-21.0,-18.5,-13.25,-13.75,28.5,36.5,17.0,42.5,7
-21.0,-15.0,-16.0,-13.25,24.25,39.0,5.25,59.25,7
-9.25,-17.0,-3.5,-18.0,3.0,32.5,12.0,16.5,7
-20.25,-15.25,-2.5,-12.0,8.75,26.25,21.75,1.75,7
-20.75,-13.25,-13.0,-32.75,3.75,8.75,18.25,-95.75,7
-13.25,-5.5,-11.5,-20.0,17.0,-0.25,7.75,-87.75,7
-10.75,5.75,-5.25,-9.0,31.25,-8.75,11.75,9.75,7
1.25,5.25,-1.0,-18.5,25.75,10.5,9.75,22.5,7
5.5,6.0,-5.0,-27.5,34.25,24.75,12.25,-9.25,7
8.25,10.0,-13.75,-47.25,41.5,31.0,9.25,45.0,7
0.75,6.75,-25.75,-31.75,42.75,37.75,3.0,68.25,7
8.0,7.5,-32.5,-19.75,37.5,29.25,11.0,52.25,7
16.25,15.75,-21.5,-27.75,41.75,22.25,5.0,70.75,7
-1.5,27.0,-19.5,-21.75,22.0,15.5,18.0,50.0,7
-20.25,25.5,5.0,-14.75,-28.5,19.0,19.0,63.0,7
-25.5,43.25,0.75,-5.5,-21.0,9.25,7.25,80.5,7
-6.25,40.75,-5.75,-8.0,2.25,6.25,9.25,68.5,7
-22.25,31.75,3.25,-17.75,-19.25,-3.75,6.5,33.5,7
-26.0,42.5,-12.5,-1.0,-16.0,-18.75,16.5,7.25,7
-24.75,43.25,-1.75,1.5,-15.25,-21.75,31.75,2.0,7
-20.75,52.75,5.5,5.25,-2.75,-22.0,29.5,-17.0,7
-4.5,57.75,6.0,17.0,-1.0,-4.0,31.75,-39.5,7
-3.0,46.5,2.25,10.5,-17.0,9.25,29.0,-54.5,7
-3.0,31.5,11.0,12.0,-3.75,5.5,32.25,-13.0,7
-9.75,38.5,12.0,1.75,0.0,6.75,42.5,4.5,7
-0.75,30.5,-0.5,-5.0,11.75,18.5,26.75,7.25,7
-18.25,27.5,0.0,-10.5,32.0,32.0,31.25,44.0,7
-6.75,16.5,-13.0,-15.75,35.25,29.25,29.75,41.0,7
2.5,0.75,-12.0,-14.5,38.5,46.0,25.25,62.75,7
3.0,20.0,-13.5,-22.25,52.5,52.5,29.75,89.0,7
10.25,4.0,-5.75,-20.25,93.75,67.5,24.0,76.75,7
15.5,-11.25,-16.5,-17.5,108.75,74.0,27.75,61.0,7
28.75,-5.25,-21.25,-12.75,87.25,59.25,28.25,49.0,7
8.75,3.5,-15.75,-19.75,71.25,60.75,21.75,48.75,7
7.0,-1.5,-15.0,-18.0,55.5,50.75,17.0,41.5,7
-4.75,-10.5,1.75,-24.0,52.0,31.0,27.25,21.75,7
-1.5,-1.25,-4.0,-28.75,40.75,26.5,15.0,17.0,7
-3.0,6.75,1.25,-31.25,14.25,31.0,24.75,18.25,7
-13.5,5.25,0.75,-20.25,1.25,24.25,37.75,8.0,7
-16.75,-6.0,6.75,-29.75,-9.5,14.25,37.75,5.5,7
-23.0,4.0,13.75,-27.5,-29.5,18.75,41.25,-15.0,7
-31.75,-0.5,11.0,-6.75,-31.0,17.5,32.0,-11.0,7
-33.75,5.25,9.5,-19.75,-18.0,7.25,15.0,-17.5,7
-35.25,-9.5,3.0,-3.5,-37.0,3.5,15.75,-24.75,7
-29.5,-11.0,5.5,-3.5,-30.75,8.0,28.0,2.25,7
-15.25,11.5,15.25,-5.25,-36.0,15.0,28.0,-10.5,7
-19.5,3.25,20.25,-2.5,-75.25,-8.5,45.25,-3.75,7
-35.5,15.5,11.75,-1.75,-73.75,-15.5,35.0,4.5,7
-39.75,18.25,-0.75,-6.0,-29.25,8.0,32.25,-10.75,7
-3.25,-0.75,-8.75,-16.25,-4.75,18.25,23.25,6.75,7
-12.5,10.5,2.75,-10.0,0.5,36.0,8.0,8.0,7
-22.75,-3.0,-3.0,-9.75,21.0,40.75,33.5,19.0,7
-3.0,-10.75,9.0,-3.25,44.75,48.75,34.0,43.5,7
-1.75,-2.75,0.75,-3.25,57.5,55.75,30.5,27.0,7
3.25,-11.5,-3.0,-5.5,42.75,50.25,11.5,18.75,7
-6.75,1.75,4.5,5.5,43.5,46.5,20.0,21.75,7
-6.25,10.75,-3.75,7.75,40.25,35.5,28.75,20.0,7
-11.75,0.5,4.0,3.0,21.75,25.0,11.0,7.0,7
-33.5,2.75,-5.5,-4.75,11.0,19.5,10.0,3.75,7
-28.75,-3.0,-4.75,-4.75,1.5,19.25,15.25,-5.5,7
-35.5,-4.0,-2.75,-11.25,-14.0,16.0,9.0,-18.75,7
-32.25,4.0,-4.0,-19.25,-18.5,26.0,7.0,4.0,7
-23.25,8.25,-3.25,-11.5,6.0,18.25,11.25,2.25,7
-27.75,-1.5,-11.5,-18.75,33.75,23.25,6.5,-0.25,7
-12.5,-7.75,-13.75,-16.75,27.5,18.75,9.25,7.5,7
-26.0,2.75,-3.25,-16.0,30.0,25.0,15.75,10.25,7
-6.25,-7.5,-4.75,-22.75,51.0,25.75,17.75,33.25,7
-14.0,-5.25,-16.75,-5.25,27.75,18.25,23.75,17.75,7
-12.25,0.75,-7.5,-2.0,29.0,32.75,22.75,-8.5,7
7.25,0.75,1.0,-7.25,46.75,18.75,15.25,11.75,7
3.75,-5.5,-7.0,-7.75,47.75,38.0,17.25,36.25,7
14.0,-3.5,-14.5,3.25,60.5,30.75,9.75,37.5,7
-0.75,4.25,-18.5,-8.25,69.0,21.0,1.25,45.25,7
15.5,5.5,-25.75,-19.0,64.0,27.5,6.0,22.0,7
11.5,21.0,-20.5,-17.75,59.0,23.0,16.25,5.25,7
1.25,1.25,-18.5,-17.5,34.75,-4.5,13.25,-10.75,7
4.5,-8.0,-22.0,-19.0,12.25,-12.0,16.25,-3.5,7
-0.5,2.5,-13.0,-19.5,13.5,14.25,19.5,1.75,7
-6.5,-1.75,-1.25,-14.0,-21.25,4.75,16.25,-8.75,7
-25.0,14.0,6.25,-5.75,-80.25,-12.0,29.5,0.75,7
-38.0,31.5,7.0,0.25,-87.75,-13.75,33.0,16.75,7
-35.75,18.0,11.0,-26.25,-66.25,-14.5,37.0,11.75,7
-37.5,6.0,11.5,-19.5,-71.75,-12.0,31.25,-11.0,7
-39.5,9.75,13.5,-21.75,-54.5,2.5,31.25,12.75,7
-21.75,14.25,15.0,-18.25,-40.5,-2.75,35.25,11.75,7
-15.25,16.5,13.75,-8.25,-22.75,7.75,27.25,6.25,7
-10.25,9.5,4.75,-10.0,-7.5,13.75,29.5,6.75,7
-14.0,0.5,3.25,-10.25,-0.5,14.5,33.0,21.5,7
-2.75,-0.75,7.5,-18.75,20.25,17.5,32.75,18.5,7
-1.0,-4.0,-0.25,-15.0,40.5,27.25,33.5,-13.5,7
-2.75,0.5,0.75,-27.0,57.5,31.0,40.75,-0.25,7
3.5,3.25,-2.75,-15.0,57.75,29.5,35.0,34.25,7
-18.25,-1.75,-12.5,-27.75,60.75,34.0,28.25,38.0,7
-6.5,-0.75,-23.75,-17.5,53.5,39.0,41.75,20.75,7
3.75,-14.5,-20.5,-10.5,58.5,35.0,30.25,26.75,7
-4.0,-14.0,-19.5,-34.75,75.0,36.25,20.5,32.75,7
8.75,-13.0,-23.5,-41.0,92.75,53.5,25.0,52.0,7
-3.75,-9.75,-13.75,-40.0,71.25,38.0,26.75,36.25,7
-8.5,5.5,-12.5,-22.75,44.0,35.75,34.75,22.75,7
-8.5,1.75,-19.0,-31.75,31.5,30.5,27.25,17.0,7
-18.0,4.25,-18.0,-28.5,13.5,22.75,34.25,5.5,7
-9.5,-15.0,-5.75,-24.0,10.5,17.0,28.25,-2.75,7
-13.75,-14.0,-8.75,-21.5,-6.5,5.25,23.5,2.25,7
-29.5,-3.5,-5.5,-20.0,3.25,14.25,28.25,16.25,7
-22.25,8.75,7.0,-2.25,5.25,4.75,21.75,15.75,7
-12.0,2.25,6.25,-4.5,3.0,15.75,21.75,50.75,7
-3.5,-11.5,5.0,-9.0,17.25,12.0,16.25,72.5,7
9.25,1.5,-5.5,9.75,19.5,29.75,30.0,65.25,7
-0.75,-3.0,-10.0,-6.75,35.0,41.5,28.0,59.0,7
1.25,8.75,-8.0,7.0,48.5,43.75,21.75,48.0,7
16.25,4.0,-11.75,-4.5,46.75,57.25,25.5,36.25,7
8.25,8.5,0.0,-10.5,30.5,26.5,37.25,33.75,7
-9.0,21.75,3.25,-5.25,-3.0,22.75,45.5,12.5,7
-6.5,14.25,-9.75,-2.25,4.0,29.25,25.75,-77.75,7
-10.0,15.75,-17.5,-0.75,28.75,26.75,18.5,-74.75,7
-20.75,14.75,-15.75,-1.5,10.0,23.75,17.75,63.5,7
-8.75,12.75,-7.0,8.25,22.5,29.0,29.75,73.0,7
-15.0,16.0,-2.5,-6.0,12.75,35.25,19.5,62.5,7
-22.25,4.0,-7.25,-6.0,4.25,33.75,16.25,58.5,7
-17.25,-2.5,-3.5,-8.25,4.5,29.5,23.0,11.5,7
-19.75,-7.75,8.5,-12.25,3.0,18.0,12.25,51.5,7
-20.0,-0.75,2.5,-5.25,5.75,23.5,14.75,-32.5,7
-29.5,2.0,2.25,-7.75,-17.25,27.5,14.75,-177.0,7
-34.0,-0.75,-7.75,-10.75,-5.25,28.75,17.75,-201.5,7
-29.75,11.75,-8.5,-6.0,-4.0,27.5,12.0,-145.75,7
-21.25,0.0,-22.5,-20.25,11.5,16.75,6.25,-152.25,7
-18.25,6.5,-18.25,-29.0,25.0,12.5,4.75,-78.25,7
-19.5,-3.25,-13.0,-26.25,46.0,27.25,9.0,71.5,7
-0.5,-22.5,-30.25,-34.75,99.0,45.25,4.25,69.5,7
16.5,-22.5,-28.75,-36.75,102.5,35.75,-1.25,102.25,7
14.5,-32.25,-30.75,-30.0,81.75,35.0,-9.75,98.5,7
11.75,-22.25,-35.0,-27.25,84.0,35.75,0.75,106.75,7
15.0,-20.25,-28.25,-31.75,91.0,55.0,11.0,104.75,7
19.75,-31.0,-20.0,-41.25,90.0,63.5,10.0,83.0,7
0.0,-23.0,-14.25,-26.0,75.5,47.25,14.25,102.75,7
-6.5,-15.5,-10.0,-18.25,62.0,54.0,7.75,72.0,7
-2.0,-8.75,-11.0,-21.0,64.75,28.75,32.25,74.5,7
-7.75,-2.5,-4.25,-27.75,48.75,35.5,28.0,56.75,7
-10.5,2.75,-4.0,-24.0,29.0,18.25,23.25,55.5,7
-12.25,11.5,2.75,-11.75,34.5,-14.5,34.0,50.25,7
-4.5,19.0,4.0,-21.5,17.5,0.75,36.0,34.75,7
-11.0,29.0,3.75,-12.25,2.5,8.25,27.5,35.25,7
-11.25,28.75,9.5,-6.5,0.0,7.75,26.0,26.5,7
-21.75,20.25,15.25,10.25,-12.0,4.5,35.75,13.0,7
-19.25,19.75,26.5,8.75,-36.5,5.25,26.5,-18.75,7
-11.75,31.0,25.5,11.0,-41.5,9.25,42.75,-12.0,7
-23.5,25.75,12.25,16.0,-13.25,12.25,36.75,12.5,7
-20.25,26.5,16.25,13.0,3.75,29.75,40.25,32.25,7
-15.25,31.0,14.0,33.0,29.75,36.0,42.5,45.0,7
-5.75,23.25,12.0,19.0,53.0,35.5,29.25,38.75,7
-4.5,29.25,-3.0,2.75,60.5,36.25,37.75,40.25,7
2.25,33.75,-13.25,-13.75,65.5,25.0,25.5,38.25,7
8.75,31.5,-5.0,-11.75,59.5,17.5,15.0,25.25,7
13.25,20.0,-8.75,-25.25,67.5,12.25,12.5,39.5,7
14.0,21.25,-8.0,-41.0,57.5,14.75,10.75,26.25,7
10.25,9.75,-22.75,-35.5,34.75,27.25,8.75,10.75,7
9.25,13.75,-17.0,-53.0,26.75,30.0,12.75,19.25,7
-5.25,11.75,-15.25,-36.75,16.75,17.25,12.5,12.25,7
0.5,14.75,-21.25,-27.5,7.75,14.5,7.75,17.25,7
-13.0,28.5,-18.5,-25.75,19.25,11.0,9.75,7.5,7
-11.5,13.0,-12.25,-24.0,38.75,22.75,12.0,14.0,7
-0.25,3.75,-23.0,-32.0,60.5,25.75,11.5,4.5,7
-0.5,-8.25,-18.0,-17.75,35.0,5.0,-2.25,-10.75,7
-30.0,-6.75,-3.5,-28.75,6.5,17.25,10.75,-12.5,7
-36.75,-0.75,-17.0,-25.25,8.5,18.5,11.25,-12.5,7
-25.25,5.5,-14.75,-13.5,3.0,20.75,11.5,1.75,7
-32.5,9.0,-18.0,-17.0,23.75,12.75,0.5,-1.5,7
-19.5,2.0,-9.5,-8.0,35.75,11.5,-3.5,15.0,7
-24.5,-4.5,-8.0,-3.25,43.0,30.5,22.25,12.75,7
-10.5,-3.0,0.0,-3.75,46.5,33.25,12.75,9.75,7
-0.25,-9.0,-4.0,9.0,33.0,30.25,18.5,18.75,7
-6.0,-16.5,-8.0,0.5,34.0,15.0,15.0,16.25,7
7.0,-13.5,-0.5,-12.25,34.75,32.25,22.0,25.5,7
-2.5,-13.25,2.0,-0.75,32.25,36.5,29.75,17.25,7
1.75,-5.75,6.25,2.5,29.0,26.5,32.0,37.5,7
9.25,10.25,6.75,12.25,17.0,18.75,42.5,17.0,7
-3.5,16.25,11.75,10.75,-8.5,11.0,32.25,-0.75,7
-12.75,19.0,4.75,3.75,-40.75,6.5,50.75,-6.25,7
-25.75,27.75,13.5,-4.5,-47.75,7.25,46.25,-12.75,7
-23.75,11.75,5.25,-10.0,-50.25,25.5,57.25,-1.5,7
-22.5,38.0,9.0,3.0,-38.5,17.25,64.5,7.5,7
-11.75,36.5,21.75,-2.0,-32.0,22.0,51.5,-10.25,7
-8.5,27.75,8.0,19.0,-35.0,18.0,41.0,-27.0,7
-17.75,32.25,8.0,12.0,-22.75,25.75,45.0,-8.0,7
-4.0,12.25,0.0,-0.25,-25.25,28.75,53.0,3.75,7
-6.25,26.25,-3.0,4.25,-8.5,35.75,34.75,15.5,7
-1.0,24.75,-4.5,-12.25,2.5,44.0,40.0,13.75,7
-3.5,9.25,-7.5,-7.25,17.75,26.25,35.5,3.5,7
-15.5,-11.5,-3.0,-15.5,37.0,24.5,44.75,-15.75,7
-3.75,-9.0,-1.0,-15.5,38.25,25.5,42.0,9.5,7
-3.0,-18.75,-12.5,-20.25,50.0,29.75,29.5,20.0,7
0.25,-27.0,-27.25,-34.0,37.25,35.25,28.25,35.75,7
-5.75,-14.0,-26.5,-27.25,50.5,44.25,25.5,57.25,7
1.75,-30.75,-40.5,-24.5,84.0,51.5,25.75,74.75,7
17.0,-28.5,-45.25,-40.5,87.0,55.25,18.25,61.0,7
-5.75,-23.25,-39.5,-44.75,67.25,34.5,30.25,36.0,7
-8.25,-15.25,-36.5,-39.75,48.75,51.75,27.25,58.0,7
-16.25,-9.0,-22.0,-53.5,37.5,48.5,32.25,35.75,7
-16.25,-2.0,-18.5,-42.5,27.5,14.25,36.5,60.75,7
-8.25,0.0,-18.0,-29.25,21.75,18.75,11.25,47.0,7
-13.75,13.25,-13.25,-37.25,16.75,30.0,23.25,10.75,7
-16.0,20.25,-9.75,-39.5,22.75,27.0,37.75,7.75,7
-20.5,8.75,-13.75,-23.25,-0.25,19.25,28.5,-18.0,7
-6.75,17.5,-15.75,-20.75,-2.5,2.5,22.25,-21.5,7
-9.75,0.0,-7.75,-24.5,10.75,10.5,30.25,-44.5,7
-1.0,-2.5,-4.0,-23.25,7.5,10.0,29.5,-75.0,7
-7.0,1.25,-0.75,-22.0,11.25,13.25,23.75,-49.0,7
-11.0,-5.75,0.0,-11.5,32.5,24.0,25.75,23.5,7
-7.0,-10.5,-0.25,-12.5,27.75,30.5,26.25,23.25,7
-18.0,0.25,11.0,-9.75,14.75,37.25,34.5,28.5,7
-6.5,13.5,3.0,3.5,6.25,11.5,40.75,44.5,7
-21.75,13.5,-0.25,-2.0,28.5,33.5,35.0,49.5,7
-7.25,21.5,9.75,-2.25,43.0,37.75,41.25,63.25,7
2.25,17.75,7.0,-0.75,35.75,26.0,32.5,42.75,7
4.0,2.25,10.0,-10.25,54.75,23.5,31.0,42.75,7
19.5,2.25,8.0,-1.25,37.25,36.75,21.5,24.75,7
-1.75,1.25,-0.25,-4.5,33.25,43.5,16.75,55.25,7
-12.0,13.25,-0.5,-6.5,24.25,26.25,22.0,74.5,7
-11.25,14.0,-9.5,4.0,3.0,21.25,12.75,77.0,7
-4.0,0.0,-5.25,-10.25,6.5,13.0,14.75,88.0,7
-7.75,15.5,3.75,-22.25,5.75,20.5,13.0,88.25,7
-8.0,1.5,0.0,-37.75,-2.25,6.25,16.75,88.75,7
-11.75,2.0,-4.5,-26.25,-2.0,13.25,16.0,40.5,7
-9.25,10.25,-9.75,-26.25,12.0,21.75,3.25,-37.25,7
2.75,-1.0,-9.25,-26.5,16.5,23.25,0.25,-89.0,7
0.0,-5.0,-8.25,-22.75,45.25,34.5,3.5,-64.25,7
7.0,-16.5,-8.75,-47.0,77.25,26.5,10.0,-94.5,7
7.25,-10.75,-14.0,-42.0,76.25,19.0,2.0,-170.0,7
1.25,-19.75,-26.25,-38.5,54.75,18.5,8.0,-131.75,7
-1.5,-21.5,-25.0,-41.25,70.75,24.75,14.0,-77.5,7
-9.75,-24.75,-16.25,-29.75,76.5,25.75,16.5,29.75,7
-10.75,-23.75,-13.25,-38.75,74.75,23.5,22.5,78.25,7
-6.5,-25.25,-8.75,-28.0,70.25,29.5,22.5,57.25,7
-7.75,-29.5,-11.0,-19.0,49.5,30.75,26.0,79.75,7
-4.75,-28.0,-9.25,-23.0,56.0,28.25,37.5,53.0,7
0.75,-22.75,2.75,-14.25,43.5,44.25,29.0,68.0,7
-4.0,2.75,12.0,3.5,35.0,29.25,19.75,52.75,7
-9.0,3.75,21.5,-2.0,20.75,17.0,30.5,41.75,7
-10.25,5.0,10.75,-17.25,8.25,21.0,26.75,38.5,7
-14.75,26.75,3.25,-10.5,9.75,19.5,41.5,43.5,7
-23.75,29.25,8.5,-12.25,6.25,14.5,20.0,46.5,7
-11.5,25.75,14.25,1.5,-9.0,-7.5,18.75,18.5,7
-27.5,42.5,25.5,5.5,-39.25,-3.0,26.0,-8.25,7
-46.5,47.75,25.5,10.25,-43.75,6.5,19.0,-13.25,7
-22.0,45.0,31.0,16.5,-14.25,21.75,39.0,8.75,7
-31.75,25.75,20.25,14.75,-1.0,25.0,26.75,5.5,7
-30.0,11.75,6.75,5.0,-3.75,19.25,32.0,-7.5,7
-22.25,13.0,-4.25,5.25,3.5,19.75,27.25,-3.25,7
-24.75,1.5,-10.75,-4.75,11.0,30.25,9.0,31.75,7
-19.75,3.0,-17.75,-13.5,26.0,28.25,15.0,45.0,7
-12.25,0.25,-14.0,-15.5,40.0,24.75,14.0,69.25,7
-18.0,-10.0,-6.25,-28.0,47.75,26.25,3.25,72.5,7
-2.75,-1.0,-14.5,-16.0,64.25,31.0,3.75,79.5,7
2.0,-10.0,-8.0,-5.5,59.75,42.5,7.5,109.0,7
-12.0,-19.75,-6.75,-5.75,41.75,22.5,3.25,58.0,7
-8.25,-20.5,-5.75,-17.75,37.5,18.5,4.5,39.25,7
-6.5,-26.25,-11.0,-5.0,26.0,27.0,1.75,11.75,7
-2.25,-18.5,-13.0,-11.5,22.25,39.0,12.0,-9.75,7
-9.25,-20.25,-28.5,-7.0,33.75,41.75,14.5,-12.25,7
-9.75,-25.25,-30.25,-6.25,46.5,32.25,16.25,-98.25,7
-4.75,-0.75,-17.5,-23.25,23.0,22.0,18.25,-125.25,7
-10.75,2.75,-29.0,-13.0,20.0,10.25,14.0,-12.0,7
-12.0,-6.75,-21.75,-8.25,15.75,-5.0,29.0,40.25,7
-3.25,-4.75,-20.25,-1.0,4.75,-32.0,39.75,9.75,7
-5.0,2.75,-21.25,-7.25,10.25,-26.5,24.75,17.25,7
1.75,2.75,-13.75,-9.75,11.25,19.0,18.75,15.0,7
6.75,-1.0,-12.0,-11.25,11.75,54.0,24.5,27.0,7
1.25,3.25,-11.5,1.25,20.75,54.25,19.5,29.75,7
5.5,-0.5,-5.75,-1.25,32.0,69.75,30.25,42.5,7
2.25,11.5,-10.0,-10.75,35.25,51.5,22.75,63.0,7
-3.5,7.5,-18.75,-18.75,39.25,45.75,20.5,67.75,7
3.75,6.5,-11.5,-23.75,31.25,52.0,24.75,62.5,7
-7.0,7.75,-7.0,-18.5,42.5,32.25,9.25,53.5,7
-7.5,1.5,-9.0,-30.75,42.5,39.75,21.5,50.25,7
-5.25,13.5,-6.0,-31.0,17.5,25.75,29.5,36.0,7
-23.5,41.75,5.0,-10.0,-12.5,21.25,39.0,21.5,7
-18.0,49.25,18.5,-4.0,-18.25,27.25,48.75,33.0,7
-16.75,47.5,19.25,-0.5,-8.5,24.75,51.0,2.75,7
-22.5,52.0,25.25,-7.5,-23.75,9.75,42.5,-21.75,7
-21.75,23.0,9.75,-10.5,-9.25,19.75,40.75,-2.0,7
-16.0,25.75,17.5,3.25,-12.75,21.75,56.25,-24.75,7
-1.5,27.5,20.25,2.75,-6.5,7.75,40.25,-3.25,7
-18.25,21.0,5.0,2.0,-5.75,0.0,35.75,11.75,7
-30.5,39.75,9.75,2.25,-1.75,20.25,42.5,37.25,7
-15.0,23.25,-7.0,-2.75,9.75,26.25,45.5,54.0,7
-13.5,15.0,-0.75,-24.75,6.25,15.5,33.75,28.25,7
-8.25,7.5,-8.25,-29.25,11.25,9.5,28.5,4.75,7
-5.5,-4.0,-15.75,-25.25,3.0,-2.0,28.0,-2.5,7
-9.25,-7.0,-12.25,-35.75,21.75,15.5,22.75,17.75,7
1.5,-21.5,-18.25,-37.0,36.25,33.5,23.75,23.0,7
4.0,-22.0,-22.5,-41.0,55.25,50.0,18.75,41.5,7
9.5,-25.5,-23.5,-41.75,77.75,46.5,12.5,74.0,7
10.25,-25.75,-30.75,-37.5,80.25,36.5,3.0,56.25,7
-7.0,-20.25,-32.75,-37.5,73.25,35.0,-2.0,21.75,7
5.5,-13.75,-23.0,-31.0,71.25,35.25,10.75,18.25,7
-3.0,-16.25,-26.5,-31.25,47.25,33.25,32.25,-9.5,7
-1.75,-10.0,-23.0,-23.5,22.5,29.0,24.25,-19.25,7
-4.0,9.75,-5.5,-17.25,17.5,17.75,28.75,-44.5,7
-16.0,4.5,-12.75,-11.25,7.25,17.75,32.5,-92.75,7
-12.75,-0.5,-6.0,-2.75,5.5,14.5,31.75,-62.25,7
-23.0,11.25,-0.75,6.5,-5.0,10.0,43.0,4.75,7
-17.0,25.0,3.5,5.25,-0.5,30.5,32.75,-4.25,7
-18.0,14.25,6.0,-5.75,2.25,5.75,26.0,-1.75,7
-7.5,6.25,2.0,-5.25,-3.0,0.25,19.5,3.5,7
-6.5,12.75,1.0,-11.0,5.5,11.75,17.75,-1.0,7
-17.5,3.0,-5.0,-11.75,1.75,2.25,13.5,19.0,7
-11.0,8.0,4.5,-18.25,1.75,2.25,10.0,6.25,7
-23.25,3.75,5.5,-17.25,-11.0,2.0,21.75,18.0,7
-22.5,5.25,17.25,4.0,-21.25,22.5,30.5,19.75,7
-4.25,17.0,19.0,-0.25,13.75,21.0,30.25,32.0,7
-6.5,7.0,12.5,-7.0,33.5,17.75,23.25,23.75,7
-7.0,0.0,-9.0,-20.25,40.25,18.0,21.5,8.0,7
-2.5,3.25,-10.5,-25.75,56.25,1.0,30.5,2.75,7
-10.75,3.0,-5.5,-17.75,41.5,21.5,20.5,3.5,7
-15.5,2.75,0.75,-6.25,32.25,22.5,15.5,36.5,7
-3.75,5.75,21.75,-2.75,29.25,13.75,15.75,5.5,7
-8.5,-3.5,2.5,-5.25,19.5,18.0,14.0,23.25,7
-9.0,10.25,2.5,-3.0,9.75,9.75,14.5,22.5,7
-11.5,13.5,0.5,-14.75,-0.25,-3.0,7.5,5.25,7
-9.25,8.0,-7.0,-13.25,7.75,3.75,25.0,32.25,7
-7.25,13.25,-17.5,-13.0,7.5,27.25,31.25,25.5,7
-13.75,5.0,-10.25,0.25,1.75,21.5,21.25,31.75,7
-6.25,12.5,-2.25,-1.5,6.0,22.0,38.25,4.5,7
-8.5,10.5,-11.25,-16.25,25.25,37.25,27.25,29.5,7
3.0,5.25,-18.5,9.0,54.0,38.75,21.0,66.5,7
0.0,0.5,-24.5,-7.75,47.0,41.75,20.75,80.25,7
-6.75,-7.0,-19.75,-3.5,52.25,50.25,15.25,77.75,7
-12.5,-12.0,-28.75,-7.5,70.5,45.0,22.75,55.0,7
-10.0,-18.25,-27.75,-20.75,56.0,33.25,24.25,44.5,7
8.75,-14.25,-31.25,-11.75,60.0,51.5,23.25,2.25,7
-2.5,-18.75,-35.5,-24.75,74.5,35.0,12.0,-17.25,7
3.5,-20.25,-37.0,-31.0,66.75,35.5,16.5,-50.5,7
0.25,-3.25,-29.5,-20.75,51.75,42.25,12.0,-60.25,7
7.75,-6.0,-6.0,-16.25,42.5,27.25,19.0,11.25,7
13.5,5.5,-10.75,-21.5,36.5,26.0,25.75,45.25,7
-3.0,5.25,-7.75,-26.0,41.0,22.5,15.25,22.25,7
-7.5,-12.5,-17.75,-32.5,21.5,17.0,19.75,25.5,7
-10.25,4.75,-5.75,-28.0,1.25,2.75,13.5,19.5,7
-1.25,-5.25,12.0,-35.0,11.5,8.25,11.75,34.75,7
-17.5,-9.75,-1.25,-27.75,-6.75,21.5,22.75,73.5,7
-9.75,14.5,11.0,2.0,-46.75,9.25,31.75,103.75,7
-12.75,30.0,16.25,-6.0,-32.75,4.75,32.75,116.75,7
-24.0,32.0,15.75,-17.25,-21.5,10.75,24.0,96.25,7
-11.5,21.25,16.75,-8.0,-28.75,14.5,21.5,73.75,7
-3.5,11.25,1.25,-14.75,-3.0,18.75,23.0,28.0,7
2.0,6.75,10.0,-23.25,5.25,8.75,18.75,-26.75,7
-6.75,-4.75,6.0,-33.5,14.5,1.25,21.25,-103.25,7
0.5,-6.5,2.25,-29.75,23.25,21.0,18.0,-224.25,7
-14.75,12.25,13.0,-40.0,35.5,24.0,23.25,-215.25,7
-14.75,6.0,10.75,-41.25,46.0,15.25,24.75,-66.75,7
-1.25,-2.75,8.5,-40.75,39.75,27.5,17.25,29.5,7
-6.5,-6.0,17.5,-49.75,63.75,42.5,22.0,60.5,7
-3.75,-2.75,10.25,-45.0,68.0,53.5,13.5,58.75,7
9.0,-21.75,5.5,-42.75,50.75,53.75,14.25,72.0,7
5.5,-6.5,27.75,-31.0,54.75,47.75,13.25,72.5,7
10.25,4.0,19.25,-37.0,49.5,56.25,12.25,68.75,7
14.5,-18.75,2.75,-31.25,54.5,45.25,16.0,74.75,7
-5.75,-21.5,-3.0,-17.5,61.5,24.0,3.75,47.25,7
-0.25,-29.25,-0.25,-2.75,32.75,4.0,12.5,40.25,7
-5.0,-5.25,5.0,1.25,21.0,39.5,17.25,35.25,7
-14.0,-1.75,-8.5,7.5,17.25,51.25,28.25,22.25,7
-15.75,-2.25,-22.25,12.25,-0.5,0.0,38.0,27.0,7
-19.5,15.25,-30.75,11.25,5.5,18.75,35.0,30.25,7
-19.25,20.25,-26.25,17.75,23.75,24.75,24.25,29.25,7
-23.0,14.75,-24.25,13.5,22.75,25.75,23.0,24.0,7
-17.0,21.75,-36.0,5.0,19.75,34.75,27.5,48.25,7
-21.5,26.25,-47.25,6.25,28.0,28.75,23.75,75.25,7
-12.0,17.75,-47.5,-0.75,45.5,46.25,28.25,67.75,7
1.5,8.25,-42.0,-9.5,52.25,33.75,17.25,42.25,7
-6.5,-9.75,-40.5,-1.0,34.25,34.0,25.25,48.75,7
4.75,-17.25,-25.0,-16.75,47.5,49.5,29.25,47.75,7
9.0,-12.0,-20.5,-19.5,50.75,39.75,19.75,16.5,7
7.75,3.25,-13.75,-9.0,35.5,35.75,29.25,-17.25,7
7.5,19.0,15.0,-11.5,0.25,36.25,32.5,-78.5,7
7.75,35.0,7.0,-15.25,3.5,27.5,35.0,-92.0,7
3.75,17.25,3.0,-7.75,20.75,39.5,29.0,-8.25,7
-6.75,14.25,8.75,-7.75,-2.25,21.0,29.0,14.0,7
-16.0,20.0,11.0,-18.0,-7.75,2.25,32.25,-7.0,7
-18.5,2.5,4.25,-24.5,-28.5,20.0,29.25,4.0,7
-29.5,12.75,-15.75,-23.0,-25.25,-5.25,18.5,-32.75,7
-32.0,16.5,-2.5,-21.25,-15.25,-7.75,7.5,-20.25,7
-30.5,12.25,-2.5,-13.5,-11.25,7.75,8.5,-13.75,7
-27.5,16.25,-8.5,-7.75,-11.75,-13.0,7.5,-13.75,7
-22.25,11.5,-6.5,-20.25,-11.75,4.25,7.5,-0.5,7
-28.0,10.0,-13.25,-21.75,9.25,7.75,13.0,-3.5,7
-11.5,4.25,-12.75,-10.25,16.5,14.25,14.25,-2.25,7
-10.5,-1.0,-23.0,-9.5,29.75,25.75,9.75,13.0,7
-22.0,-0.75,-20.5,-12.5,44.5,23.75,20.75,54.5,7
-19.25,-16.0,-21.5,-5.25,60.25,38.5,12.5,89.0,7
3.0,-17.75,-32.0,-17.0,85.25,41.75,12.0,100.5,7
6.25,-12.75,-24.5,-25.75,92.75,51.5,10.5,64.5,7
-3.0,-17.0,-24.5,-25.25,80.75,51.0,16.0,43.75,7
0.0,-23.25,-23.25,-29.5,83.25,52.25,32.5,25.0,7
1.5,-11.5,-14.25,-8.75,60.0,41.0,25.0,4.5,7
10.5,1.75,-5.75,-16.5,48.25,23.25,31.5,-20.75,7
14.75,-6.25,-7.25,-11.5,48.25,26.75,32.5,-52.5,7
-1.5,4.0,-6.75,5.25,37.0,25.25,31.5,-13.0,7
-16.5,16.0,-6.0,2.25,27.25,13.25,31.75,36.0,7
-18.75,18.75,-2.75,2.75,12.0,3.75,34.0,23.5,7
-25.25,16.5,-9.0,11.5,16.0,-7.0,29.25,19.0,7
-28.5,16.0,-9.0,10.0,-5.25,-14.25,39.25,15.25,7
-25.75,19.0,0.75,1.25,-9.25,-18.75,33.25,2.75,7
-35.5,17.75,-0.75,5.25,0.75,-21.0,29.25,9.0,7
-28.5,24.5,-5.75,6.0,-2.0,2.25,43.5,7.0,7
-22.25,24.75,15.0,13.25,-5.75,19.75,43.0,45.25,7
-25.75,38.25,19.5,19.0,-29.75,23.25,49.25,36.25,7
-19.75,32.25,18.25,22.0,-17.75,41.5,36.5,24.0,7
-23.25,20.0,18.5,2.25,8.5,35.5,46.25,44.5,7
-24.0,15.75,-1.75,-3.75,0.5,28.25,33.5,-0.5,7
-10.75,3.0,-10.75,-13.75,18.0,27.25,20.25,3.5,7
-15.25,1.25,-11.0,-25.0,37.75,27.0,20.75,-4.5,7
-10.75,6.0,-23.0,-26.0,44.25,37.0,14.5,19.5,7
-12.5,11.75,-31.5,-37.5,56.0,38.25,23.0,32.5,7
-13.25,8.75,-20.25,-35.75,54.0,17.5,22.5,21.5,7
2.75,4.25,-27.25,-43.25,51.25,33.75,17.75,52.0,7
-1.75,5.25,-17.75,-36.0,39.25,44.75,15.0,37.5,7
-3.25,6.0,-6.5,-32.0,27.25,28.5,18.5,41.5,7
-4.25,11.5,0.0,-30.5,24.5,35.25,21.25,35.0,7
-11.5,16.75,22.5,-26.25,22.75,29.0,23.0,33.0,7
-7.0,11.75,15.25,-20.0,15.75,17.75,21.5,31.75,7
-22.25,11.5,25.5,-18.75,19.75,-4.5,22.75,29.5,7
-15.75,11.5,15.25,-25.5,39.5,-8.0,14.75,45.25,7
-0.75,-10.75,-17.75,-29.5,48.25,17.75,17.0,13.5,7
-1.0,-17.25,-7.75,-40.5,31.25,25.25,27.75,-16.75,7
6.75,-22.0,-6.25,-40.75,30.5,30.5,23.5,8.25,7
-5.0,-26.25,-11.5,-46.25,23.75,29.25,24.0,21.75,7
-4.25,-19.0,0.5,-36.5,32.25,40.75,16.25,4.75,7
-8.0,-20.0,-5.25,-32.5,46.75,42.0,20.5,52.5,7
-1.5,-22.5,0.0,-33.5,47.5,34.75,29.25,91.5,7
6.5,-14.5,-3.75,-24.5,49.0,38.25,24.75,129.25,7
-1.25,-3.5,-2.5,-22.5,50.25,40.75,25.25,159.0,7
16.5,-15.25,5.75,-27.0,57.25,45.25,26.75,63.75,7
2.5,-15.5,0.0,-13.75,58.5,50.25,38.25,42.5,7
3.25,-8.0,-4.25,-2.25,54.0,47.25,20.25,34.25,7
15.5,-20.0,-3.25,-0.5,45.0,34.5,16.5,-66.0,7
9.25,-15.5,-3.5,0.5,46.0,36.25,39.25,-61.5,7
3.25,-2.0,1.0,-2.25,38.0,44.75,46.5,-77.5,7
-6.0,16.75,13.75,-5.75,13.0,31.25,49.75,-108.0,7
-9.25,20.5,9.5,-0.5,-21.75,-11.25,43.5,-11.0,7
-22.5,18.25,19.5,6.25,-37.0,-10.5,37.5,-24.75,7
-15.25,22.0,12.25,-9.75,-29.0,16.25,35.75,-76.75,7
-25.5,19.0,5.5,-2.75,-32.0,14.0,33.5,-107.75,7
-31.0,17.75,10.25,2.0,-29.0,18.0,30.0,-69.75,7
-33.5,12.25,5.25,-2.25,-26.5,15.25,29.25,44.75,7
-15.5,10.0,-2.25,4.5,1.5,32.75,27.0,15.0,7
-4.5,8.0,10.25,9.0,16.25,34.25,25.5,47.5,7
-7.5,4.5,2.25,4.75,22.75,24.0,21.0,42.5,7
-0.5,0.75,-7.0,-2.25,40.25,24.25,26.0,37.0,7
-3.25,-4.0,1.25,-10.0,33.25,23.25,29.0,43.5,7
1.75,-14.25,-9.0,-12.25,35.75,35.25,15.25,46.25,7
-2.75,-14.0,-13.75,-13.5,38.0,37.25,7.75,72.75,7
-5.25,-7.0,-17.5,-23.5,39.75,45.75,4.25,88.25,7
-2.5,-9.75,-35.25,-32.0,49.25,65.75,17.75,104.25,7
9.0,-31.0,-50.5,-31.75,69.0,68.0,26.75,71.25,7
2.5,-46.25,-46.25,-32.25,105.5,65.25,19.25,79.5,7
18.0,-47.0,-53.5,-35.5,93.25,49.0,22.0,43.0,7
15.0,-39.5,-46.0,-25.0,51.25,26.75,22.75,15.25,7
-5.0,-23.25,-48.5,-36.75,42.0,24.5,18.75,-29.25,7
-1.5,-19.25,-40.5,-34.5,16.75,11.25,24.75,-112.75,7
-16.5,-17.25,-25.75,-36.0,20.25,-3.75,18.0,-104.0,7
-13.5,-13.75,-10.75,-30.25,-4.5,-14.0,22.5,4.5,7
-15.25,1.75,-4.25,-26.5,-33.75,-3.5,14.75,12.75,7
-17.25,8.25,-20.0,-22.25,-5.5,12.75,22.25,8.0,7
-14.5,9.0,3.0,-11.75,9.5,10.25,39.25,39.75,7
-14.5,11.75,7.0,-9.5,19.25,6.5,26.5,16.25,7
-11.75,0.5,13.25,8.75,28.5,11.0,33.75,31.25,7
-8.0,-12.25,5.0,3.5,28.75,17.0,30.5,41.75,7
-9.0,-14.0,0.5,1.0,35.5,16.25,37.0,100.75,7
-5.5,-5.25,22.75,5.75,47.5,28.25,57.0,125.0,7
12.0,5.25,21.0,15.0,58.75,20.75,51.0,93.25,7
9.25,17.0,21.0,17.25,21.5,12.25,53.0,61.5,7
-5.25,34.0,13.25,15.0,-16.0,18.5,52.5,35.75,7
-8.75,34.25,13.5,4.0,17.5,26.25,40.25,9.0,7
-2.75,22.75,11.5,-8.5,15.5,26.0,26.5,-33.5,7
-10.0,17.75,8.75,-6.25,14.25,22.5,13.75,-23.0,7
-18.0,27.5,-6.0,-15.5,14.75,31.0,26.25,-47.25,7
-11.25,34.25,-6.75,-12.0,-2.5,10.25,22.25,-35.0,7
-2.75,18.0,1.25,-1.0,-11.0,3.5,9.25,3.0,7
-9.25,25.75,4.75,8.75,-30.25,-4.25,17.25,22.75,7
-10.75,21.75,-0.25,6.25,-16.75,-3.25,7.5,16.5,7
-17.25,14.25,4.5,11.75,-21.25,13.5,4.25,2.75,7
-32.5,1.75,15.0,12.75,-27.25,28.0,11.0,3.75,7
-29.5,6.0,-3.0,2.0,-15.75,26.5,10.5,-1.0,7
-34.0,3.75,3.0,-1.0,-11.75,19.25,9.75,22.75,7
-30.25,-10.25,-5.75,1.75,3.0,27.25,23.75,14.75,7
-17.25,3.0,-17.25,-5.25,13.0,27.5,16.25,13.75,7
-5.5,-6.0,-21.0,-26.0,37.75,39.75,7.0,16.75,7
3.75,-12.0,-29.75,-38.75,77.75,14.25,7.0,31.5,7
9.5,-11.25,-27.0,-60.75,69.0,18.75,-3.25,38.5,7
13.25,-1.75,-39.75,-54.75,55.25,44.75,-3.75,25.0,7
6.25,-3.75,-27.0,-36.5,70.25,50.75,6.5,29.5,7
0.75,-1.75,-10.75,-51.0,63.75,53.75,8.5,22.0,7
13.5,-2.5,-14.25,-37.0,62.0,38.75,-0.5,25.75,7
11.75,-11.75,0.0,-25.25,54.5,51.25,19.0,31.25,7
-4.25,7.75,3.5,-20.0,37.0,31.75,17.0,20.5,7
-12.25,10.75,-10.5,-18.0,37.5,36.25,14.25,16.5,7
-13.25,10.25,-4.0,-25.0,33.5,54.0,20.5,21.5,7
-13.0,18.75,11.75,-18.0,20.5,65.0,19.0,11.25,7
-15.0,33.25,5.5,-17.0,2.5,81.5,29.0,5.0,7
-22.75,33.75,3.75,-23.0,-2.5,45.75,29.25,-2.75,7
-14.0,30.75,13.25,-7.75,26.25,22.5,46.75,4.5,7
-10.75,43.75,10.0,8.25,15.25,10.75,44.75,0.5,7
-20.0,30.5,-5.25,-2.75,-13.0,12.0,37.0,-19.0,7
-12.25,29.5,10.25,9.0,-23.0,19.75,39.5,-19.75,7
-20.75,63.0,28.5,12.25,-38.5,-21.5,25.5,-2.5,7
-19.0,57.75,4.75,-0.25,6.75,-3.5,28.0,9.5,7
-24.75,27.5,-0.75,-5.0,14.25,13.5,33.75,23.5,7
-19.25,22.0,-7.5,-3.25,24.25,-0.5,39.0,30.75,7
-9.25,26.75,-11.5,-9.0,43.25,0.75,35.75,19.75,7
-15.75,17.0,-10.0,-15.75,43.5,-10.5,19.5,21.75,7
-2.25,9.5,-16.5,-4.75,56.5,4.5,27.5,19.5,7
-4.5,-0.25,-20.75,-23.0,53.5,16.75,25.25,17.5,7
3.25,-3.5,-18.25,-20.25,76.0,19.75,16.25,14.0,7
-0.75,1.25,-4.5,-20.0,61.0,20.75,19.75,42.25,7
-0.5,-11.5,-12.0,-31.25,45.0,20.25,27.5,30.75,7
-5.0,3.75,-8.75,-17.5,47.0,5.5,26.0,6.75,7
-10.0,4.25,-16.5,-26.75,42.25,2.0,12.5,15.75,7
-13.25,-1.75,-11.0,-26.25,35.5,0.5,16.5,9.25,7
-18.5,-2.0,3.0,-22.25,26.25,1.5,14.5,9.0,7
-19.25,-1.0,-2.75,-38.0,50.0,7.0,12.0,16.75,7
-9.25,-11.25,-6.75,-34.25,55.75,10.75,-3.5,4.25,7
6.25,-7.5,-6.0,-28.5,32.75,14.0,9.0,-2.75,7
-14.0,7.0,5.75,-20.75,20.25,12.5,23.25,16.5,7
-0.75,-3.5,-13.5,-19.25,21.0,14.75,29.5,21.0,7
-10.5,15.75,-5.25,-17.75,21.25,14.25,33.25,19.5,7
-5.0,1.75,-15.75,-13.0,25.25,18.75,11.25,25.5,7
1.25,-0.25,-37.5,-42.25,41.5,26.75,6.75,20.5,7
-15.0,0.0,-24.5,-36.5,63.75,26.5,5.5,19.75,7
7.0,-10.0,-29.25,-32.75,63.5,33.25,23.0,10.25,7
10.75,0.25,-23.25,-42.75,61.5,35.25,21.0,1.75,7
9.5,-11.25,-19.25,-21.5,61.25,33.0,17.5,10.5,7
10.5,-13.75,-20.5,-24.25,67.25,47.5,34.5,33.5,7
12.25,-5.0,-5.0,-22.75,70.25,53.75,26.0,50.75,7
14.0,14.5,-6.0,2.75,59.5,60.25,29.0,49.25,7
0.0,2.25,-9.5,-8.25,41.25,53.0,43.5,43.5,7
-11.0,9.0,2.5,-7.5,16.5,37.25,29.75,5.0,7
-11.5,34.0,6.75,18.5,-32.5,20.0,22.25,-5.5,7
-27.25,23.25,17.0,1.5,-43.25,22.75,30.0,24.75,7
-21.25,28.75,16.75,2.75,-54.25,11.25,30.25,30.5,7
-26.75,39.25,15.25,17.0,-71.0,6.5,30.0,64.5,7
-33.75,35.25,19.0,2.25,-51.25,28.25,28.0,99.5,7
-22.25,42.0,14.5,2.0,-46.5,11.5,33.75,68.25,7
-21.75,37.0,16.75,2.0,-45.25,11.25,36.0,25.25,7
-18.75,31.5,-2.0,-11.5,-30.75,8.0,37.25,26.25,7
-23.75,29.25,-8.0,-19.5,-10.75,16.75,27.0,22.25,7
-19.0,13.0,-10.25,-20.5,-0.5,7.75,16.5,-42.75,7
-17.0,23.0,-2.0,-27.75,9.25,-18.25,18.25,-104.0,7
-12.75,18.0,1.25,-28.5,14.5,20.5,15.75,-132.25,7
-6.75,10.25,-13.5,-42.25,27.75,19.0,9.25,-54.5,7
-5.25,6.0,-12.25,-36.0,30.75,27.25,12.0,15.75,7
-5.25,-18.5,-19.25,-27.0,46.5,29.25,11.25,-27.5,7
2.25,-24.25,-26.5,-26.0,80.75,37.0,-8.0,-63.0,7
16.0,-34.0,-26.5,-26.0,117.5,57.75,-1.25,-29.75,7
14.5,-47.75,-45.25,-31.25,117.5,53.0,3.5,87.25,7
5.25,-35.75,-47.0,-13.0,66.25,39.5,0.5,75.5,7
6.75,-41.0,-27.75,-6.25,67.75,33.5,19.5,87.5,7
9.5,-15.0,-40.0,-10.0,48.0,45.0,25.0,134.25,7
-9.25,-10.0,-25.0,-8.5,24.0,23.0,26.25,107.5,7
-15.25,-5.75,-2.25,-3.0,16.5,25.5,29.75,94.0,7
-11.25,4.5,-14.5,-11.25,0.25,19.0,17.75,24.5,7
-16.75,-3.0,-12.0,-7.5,-2.0,12.75,26.75,12.75,7
-21.25,13.5,2.5,-4.75,-9.0,7.0,24.75,-41.0,7
-30.5,0.0,10.5,-4.25,-9.75,-20.0,14.5,-96.5,7
-30.25,-11.25,10.5,1.25,-5.75,4.0,28.75,-102.25,7
-21.25,-0.25,14.0,7.75,11.75,21.0,28.0,-111.25,7
-10.5,11.25,1.0,13.75,25.0,27.75,28.75,-38.5,7
-4.75,7.5,-0.25,8.0,31.0,25.25,27.5,43.75,7
-12.0,-2.0,1.5,7.25,12.5,31.0,25.5,27.0,7
-6.5,3.75,3.0,0.25,-13.0,28.0,24.5,37.0,7
-8.5,16.75,14.25,-3.5,-6.25,35.25,14.0,46.5,7
-9.25,0.75,-17.25,-20.5,17.75,51.75,24.0,-0.25,7
-1.5,-8.25,-15.0,-26.75,34.0,39.0,27.0,28.5,7
-7.0,7.75,-11.5,-18.5,29.0,11.5,10.0,45.0,7
-3.25,4.25,-13.75,-24.5,22.0,8.0,21.5,73.75,7
-7.5,14.25,-5.5,-23.5,26.5,24.0,30.25,74.0,7
3.0,9.75,-0.25,-28.0,28.25,28.25,20.0,40.75,7
3.0,36.5,9.0,-20.5,14.0,38.75,18.75,28.0,7
-10.0,25.0,7.0,-9.75,6.75,24.5,2.25,27.5,7
-20.5,13.0,18.5,-10.25,-15.5,28.0,22.0,33.5,7
-25.25,24.0,21.5,-8.0,-25.25,33.0,31.0,34.5,7
-22.75,12.5,10.25,-6.5,-22.0,18.0,26.25,24.25,7
-24.5,18.0,3.5,-6.0,-7.75,3.75,37.5,14.5,7
-14.5,19.5,17.75,-10.75,-1.25,12.25,35.25,26.75,7
-21.0,14.5,12.25,-17.5,10.75,17.75,45.0,33.5,7
-3.5,-15.25,13.5,-19.25,57.5,27.75,36.75,53.25,7
15.5,-23.75,-1.75,-35.75,94.5,37.5,24.5,58.75,7
11.25,-30.0,-7.0,-15.25,89.5,18.75,26.25,45.25,7
15.5,-39.25,-3.5,-1.5,95.5,24.5,23.25,49.0,7
24.25,-27.5,-31.25,-24.0,105.5,23.5,27.0,28.75,7
20.75,-22.0,-26.25,-13.25,88.0,30.25,26.0,17.75,7
20.75,-14.5,-25.25,-23.0,86.5,30.0,17.0,34.0,7
22.75,-21.0,-27.0,-27.0,92.0,22.25,13.5,36.75,7
12.5,-21.5,-42.0,-9.0,93.25,36.25,17.5,39.25,7
9.0,-14.75,-36.0,-20.75,77.5,35.75,25.5,22.0,7
-7.75,-5.25,-28.0,-21.5,60.5,24.75,31.5,25.5,7
-11.25,-4.25,-16.75,-13.5,46.75,19.0,33.25,37.75,7
-11.25,0.25,-11.75,-7.0,30.75,37.25,48.0,27.75,7
-24.25,24.0,-7.75,9.5,1.5,40.5,44.25,18.75,7
-21.5,18.75,4.75,11.5,-17.75,25.0,32.25,6.5,7
-31.0,24.5,6.0,-2.25,-39.5,24.25,44.25,18.5,7
-45.5,34.5,19.0,12.0,-56.5,18.75,40.75,-10.5,7
-53.5,34.0,29.5,12.0,-93.75,3.0,42.5,-31.25,7
-70.5,41.75,24.5,5.0,-91.0,-17.25,30.25,-9.75,7
-57.25,30.5,10.0,1.0,-54.0,11.5,25.5,-8.75,7
-45.5,27.0,13.5,3.5,-62.5,26.25,30.0,5.0,7
-42.25,21.0,6.25,-11.75,-31.75,13.5,23.25,4.75,7
-19.75,12.75,-3.25,-14.25,-27.75,23.25,32.75,-12.5,7
-15.0,8.5,-1.0,-4.75,-8.5,22.5,23.75,-5.0,7
-3.25,2.5,-3.25,-11.75,16.25,32.0,15.0,18.25,7
-1.0,2.75,-16.5,-4.5,31.0,32.25,29.75,11.5,7
10.0,6.5,-8.75,-9.25,54.0,37.25,31.25,15.75,7
19.75,4.25,-14.75,-24.75,40.75,58.0,24.75,13.0,7
8.0,1.0,-19.0,-22.25,34.5,51.5,31.75,35.0,7
27.5,8.0,-17.5,-16.5,32.75,38.5,27.75,56.75,7
18.5,12.5,-8.0,-10.75,32.5,35.0,37.25,17.25,7
0.75,4.5,-2.75,-9.75,42.25,35.5,31.25,17.5,7
10.5,-9.25,-35.0,-19.5,57.5,36.0,19.0,24.5,7
24.25,-15.25,-33.0,-22.0,69.5,47.25,26.5,27.5,7
22.0,-16.5,-7.0,-34.75,67.5,56.75,12.5,24.25,7
6.0,-17.25,-9.75,-25.5,25.5,43.0,30.5,8.25,7
7.25,-10.25,-22.5,-17.75,17.25,38.0,25.5,24.5,7
-6.5,-1.5,-2.5,-26.25,-8.0,1.0,20.25,16.75,7
-21.75,-7.0,9.75,-18.75,-37.25,-0.75,18.5,14.25,7
-22.5,-4.75,7.0,-19.5,-16.5,14.5,12.0,14.0,7
-0.75,-12.25,2.25,-27.5,-4.5,4.25,29.0,12.0,7
0.75,-20.75,-5.0,-28.5,16.5,26.5,24.5,17.5,7
-13.25,-17.5,-2.0,-30.0,9.5,21.75,34.5,14.75,7
1.75,-10.0,-15.25,-21.75,40.75,38.25,27.0,24.75,7
9.0,-5.5,-18.25,-27.25,74.75,59.0,31.75,32.5,7
16.5,-13.5,-8.0,-21.75,67.5,32.25,46.5,16.25,7
11.25,-10.0,-21.0,-27.5,64.75,42.25,27.75,4.0,7
13.5,-4.75,-22.0,-37.75,68.5,32.75,32.25,22.0,7
12.0,9.5,-16.75,-24.5,51.5,23.25,24.75,29.75,7
-9.25,8.0,1.0,-17.5,7.5,14.0,22.25,19.75,7
-29.0,4.25,20.0,2.0,-34.5,6.0,33.25,1.0,7
-32.25,3.25,16.75,-10.0,-25.25,22.25,16.75,5.5,7
-17.0,1.75,17.25,-13.75,-35.75,13.25,23.25,2.0,7
-48.0,-1.25,13.25,10.25,-61.0,8.25,15.25,-25.25,7
-51.0,-8.0,14.75,0.5,-28.75,19.5,19.0,-10.75,7
-57.5,2.75,20.5,-7.25,-39.0,21.5,31.0,-32.25,7
-55.25,5.25,26.75,2.25,-48.0,17.0,23.0,-46.75,7
-46.0,7.5,28.0,-6.0,-41.25,23.0,22.0,-20.0,7
-57.5,-10.5,27.0,-3.25,-45.5,25.5,4.25,-24.75,7
-44.25,-2.25,10.75,-0.75,-24.25,23.25,10.0,-4.0,7
-35.0,-6.25,8.25,-5.5,-22.25,21.25,16.75,22.0,7
-22.25,-2.5,6.25,0.5,-10.75,20.75,14.25,80.25,7
-19.5,12.5,-1.25,0.5,11.0,11.25,18.25,127.75,7
-4.5,7.0,-1.5,-2.0,26.0,-12.5,17.0,141.75,7
2.75,8.75,-7.25,-19.5,60.5,-0.5,16.5,105.25,7
6.25,-0.75,-9.5,-32.75,97.0,68.5,21.5,57.25,7
42.5,15.0,-34.75,-48.25,129.5,61.0,12.5,34.0,7
61.5,-6.0,-38.25,-41.25,123.75,48.25,4.0,-79.25,7
46.0,-2.5,-25.0,-35.25,77.5,44.0,8.75,-168.5,7
26.25,9.5,-22.25,-28.25,83.0,26.25,6.25,-175.0,7
21.75,8.75,-22.5,-14.0,62.25,42.25,23.75,-118.75,7
11.0,21.5,-15.5,-17.75,39.75,20.25,12.0,-43.75,7
-3.75,-1.5,-11.25,-9.0,27.75,14.0,8.5,21.25,7
-9.0,13.5,-15.5,-18.75,11.75,2.0,13.25,-9.0,7
-21.5,19.25,-3.25,-31.25,1.75,3.0,12.75,-93.25,7
-48.25,20.0,4.25,-20.75,1.25,13.5,30.5,-35.75,7
-42.75,41.25,-6.75,-10.5,3.0,11.75,34.75,73.0,7
-35.75,27.25,-10.25,-17.0,-9.75,6.5,36.75,53.75,7
-33.25,33.25,4.25,-38.25,-9.25,4.75,23.5,85.25,7
-37.75,21.75,6.25,-30.25,-12.25,1.75,30.75,139.5,7
-43.25,2.75,-8.0,-29.5,-1.0,-14.25,29.25,101.25,7
-31.0,-9.5,-7.5,-26.75,-4.5,0.5,25.0,76.5,7
-40.0,-1.75,3.0,-10.5,-10.5,-6.25,27.75,33.0,7
-46.0,13.75,10.25,-0.25,-0.25,-7.75,13.75,36.0,7
-24.75,-2.0,-5.75,-3.75,31.25,-7.5,22.75,1.25,7
-7.25,9.5,-12.0,-14.75,11.25,-5.0,25.5,-40.0,7
-1.5,3.75,-20.5,-15.75,15.25,1.0,27.75,-38.5,7
2.5,-1.0,-15.25,-18.0,47.5,1.0,23.25,-81.75,7
0.25,-7.5,-17.5,-20.5,50.75,-8.75,24.25,-25.0,7
0.5,-7.0,-15.25,-20.0,44.5,-3.25,26.5,45.5,7
4.0,14.0,-14.25,-3.5,17.75,13.5,18.75,28.25,7
11.25,10.75,-17.25,-8.5,21.25,-3.25,30.75,42.0,7
6.25,12.25,-9.75,-15.75,6.0,13.5,39.75,16.5,7
-1.25,6.5,-4.25,-2.25,4.0,9.25,26.5,20.25,7
-19.5,14.5,-0.5,11.0,8.25,3.5,21.0,57.25,7
-16.75,17.5,-5.75,-2.0,-0.5,-3.25,38.75,33.25,7
-10.25,11.5,2.5,1.0,-9.0,-9.25,31.75,25.75,7
-18.0,12.75,-0.75,-6.0,-4.0,14.25,33.75,24.25,7
-4.0,7.75,-1.5,-12.75,39.0,30.25,40.5,41.75,7
20.5,-10.5,-16.75,-10.0,80.25,43.75,33.25,47.5,7
31.25,-21.5,-26.0,-7.5,71.0,36.25,32.5,29.25,7
18.0,-21.0,-8.25,0.0,59.25,33.25,27.75,39.5,7
24.75,-19.5,-25.75,-13.0,74.25,20.75,29.75,40.75,7
21.5,-16.75,-31.0,-18.25,67.0,33.0,16.0,24.5,7
12.25,-15.25,-36.0,-24.25,66.25,50.5,2.5,2.75,7
9.0,-35.0,-45.25,-16.5,66.25,40.5,11.25,9.5,7
28.5,-28.25,-36.25,-18.25,66.25,51.0,1.0,30.0,7
27.75,-26.25,-25.75,-29.5,65.25,33.25,7.25,38.25,7
13.0,-15.25,-21.75,-19.0,61.75,40.25,18.25,66.0,7
0.25,-0.5,-9.75,-12.5,45.0,59.0,27.0,68.0,7
-19.25,-24.0,0.75,-10.0,11.75,50.0,36.75,59.25,7
-20.5,-16.0,1.5,-9.25,5.75,45.25,19.75,23.75,7
-32.25,-23.25,15.75,-18.25,0.75,30.5,26.25,-3.25,7
-35.0,-11.0,14.25,-11.75,-24.75,22.25,32.0,2.75,7
-60.25,-4.75,28.75,-8.0,-57.75,24.25,31.0,-16.5,7
-97.5,-5.75,39.0,-14.25,-113.75,22.5,33.25,-31.75,7
-101.5,11.5,39.25,-8.75,-109.75,26.0,30.25,-30.75,7
-79.25,15.75,39.0,-9.25,-77.75,32.0,31.75,-11.5,7
-73.5,15.25,19.25,-2.25,-69.0,22.25,27.25,8.25,7
-63.25,4.75,11.75,8.25,-35.5,14.75,34.75,0.0,7
-50.5,11.75,18.25,5.25,-20.75,-3.0,26.75,-0.5,7
-46.0,13.75,10.0,2.75,13.0,-8.25,21.75,7.75,7
-22.75,3.75,-7.75,-3.25,41.75,20.75,29.5,-0.75,7
-10.25,13.5,-6.0,-5.5,51.0,27.5,30.25,6.5,7
6.0,11.0,-2.75,-19.25,55.0,26.25,31.0,6.75,7
24.5,-6.5,-12.75,-6.0,56.75,32.5,19.5,4.0,7
32.25,4.75,-17.0,-12.25,61.0,40.5,30.5,7.5,7
29.0,6.5,1.0,-29.0,61.0,41.75,24.25,13.75,7
19.5,2.5,-13.0,-15.5,54.75,48.75,17.5,30.0,7
13.0,10.25,-11.25,-23.5,40.0,59.25,16.25,35.5,7
7.25,14.5,7.25,-8.0,41.5,49.0,15.5,43.25,7
17.5,14.0,-15.75,-22.25,56.0,52.5,17.25,53.75,7
50.0,14.25,-22.0,-22.75,54.25,45.75,16.75,24.25,7
23.5,33.75,-6.75,-0.5,32.0,31.5,31.5,11.75,7
-10.0,27.75,1.0,-10.0,27.25,31.25,18.25,2.5,7
-14.25,28.75,4.0,-6.5,7.25,28.5,19.0,9.5,7
-27.0,29.5,11.0,-15.0,-10.0,20.25,22.0,11.0,7
-35.0,15.0,8.0,-6.75,-13.75,1.25,24.5,-10.0,7
-52.5,19.75,10.25,-9.75,-6.0,14.25,28.5,23.25,7
-31.5,12.25,4.0,-15.0,6.5,19.75,25.0,34.5,7
-21.25,24.5,7.25,0.25,5.0,40.25,44.0,64.0,7
-1.5,19.25,15.5,-6.75,22.25,30.0,38.25,63.0,7
-3.25,11.5,1.5,-7.75,34.75,36.0,23.0,29.25,7
-13.0,14.75,-6.25,-12.5,35.25,56.25,31.75,42.25,7
2.25,11.25,-6.25,-7.75,53.75,35.5,33.5,20.25,7
4.25,11.0,-8.25,-10.5,65.25,42.5,22.25,6.0,7
14.0,6.0,-24.25,-22.5,42.75,30.5,20.5,7.75,7
-11.0,13.5,-20.25,-19.75,4.75,22.0,21.0,-5.5,7
-33.75,15.5,-3.5,-21.75,-11.25,15.25,14.25,2.75,7
-40.0,22.0,-11.75,-10.25,14.25,0.75,17.5,27.75,7
-15.5,23.25,-6.0,-13.75,14.0,0.5,23.0,26.25,7
-18.0,18.75,-8.0,-19.25,6.0,11.75,26.5,18.75,7
-28.75,18.75,-0.75,-20.25,5.25,17.5,29.75,13.75,7
-29.75,17.75,10.25,-20.25,-0.25,5.25,29.25,13.75,7
-35.5,11.75,0.5,-18.75,-1.25,25.5,18.5,47.75,7
-36.75,-12.5,-2.5,-23.75,-7.75,26.75,1.5,44.25,7
-47.5,-1.75,-6.25,-24.5,-7.25,23.75,13.5,27.5,7
-36.25,-0.75,5.0,-19.75,-2.25,20.5,13.25,25.0,7
-32.75,-7.5,3.25,-15.75,-0.25,15.25,8.25,1.25,7
-28.25,-9.5,-13.5,-25.0,7.5,25.5,10.5,-22.0,7
-18.25,-5.25,-10.25,-31.5,29.75,32.0,13.0,-32.5,7
-19.75,-4.75,-6.5,-27.25,22.5,26.5,22.0,-64.5,7
-6.25,-24.75,-18.75,-25.0,47.5,9.25,15.5,-66.25,7
20.0,-25.75,-35.75,-26.75,81.75,19.5,7.75,20.5,7
45.75,-28.75,-48.0,-21.75,113.25,35.5,8.75,81.25,7
66.75,-27.25,-37.75,-12.75,118.5,27.0,15.5,99.5,7
56.25,-16.5,-34.0,-20.75,99.0,10.5,14.75,94.75,7
43.75,-8.25,-38.25,-25.0,97.5,2.25,9.5,52.5,7
38.25,0.5,-34.75,-9.5,65.0,29.75,8.75,39.5,7
19.75,-0.5,-30.25,0.0,61.75,37.5,11.75,25.75,7
12.25,0.75,-16.0,-7.75,40.25,31.25,20.0,35.25,7
16.5,7.25,-22.25,0.75,29.25,50.0,33.0,3.5,7
13.75,12.5,-16.5,-2.0,16.0,40.75,29.25,-75.25,7
-0.5,9.5,-5.0,-6.0,5.25,38.5,24.5,-41.25,7
-13.75,20.0,3.25,5.0,-11.0,33.0,31.25,20.5,7
-27.75,17.75,15.0,-17.0,-38.75,46.0,37.25,1.75,7
-42.25,6.5,0.25,-12.5,-37.75,36.25,36.25,-20.0,7
-33.0,20.75,10.0,-10.75,-51.0,22.25,34.5,-19.5,7
-35.25,18.75,13.25,-24.5,-25.5,34.25,35.25,-4.75,7
-43.75,16.75,6.25,-21.75,5.75,23.25,28.0,45.75,7
-53.5,18.5,33.0,-9.5,0.5,19.0,28.5,43.0,7
-70.0,27.25,24.0,-1.25,-5.75,21.75,23.5,23.25,7
-35.25,23.5,15.25,-5.75,4.5,17.5,23.5,29.0,7
-15.75,12.75,13.5,-4.0,9.25,11.5,26.75,-29.75,7
-1.5,4.5,-1.75,-1.0,32.75,23.0,29.0,-76.0,7
11.5,3.0,-12.5,12.75,61.75,26.25,26.25,-91.5,7
15.75,3.5,-30.0,2.75,61.75,33.5,18.75,-15.25,7
28.5,4.75,-22.0,-14.25,63.25,32.75,23.25,44.75,7
18.75,1.25,-29.5,-16.25,45.0,37.75,17.75,10.25,7
23.5,-6.5,-17.0,-17.25,48.75,38.25,26.75,62.5,7
24.5,-2.25,-2.75,-13.0,56.0,35.75,29.75,42.75,7
6.5,4.5,-7.5,-24.25,36.25,47.5,28.5,34.5,7
5.0,7.25,0.25,-14.0,31.0,28.75,30.25,45.5,7
6.5,11.25,4.75,-4.5,19.75,11.25,35.25,37.75,7
-1.25,8.75,-0.25,-11.5,11.5,9.5,25.25,44.5,7
-15.25,-14.0,-5.25,-21.75,24.25,-6.5,9.5,39.75,7
-11.75,-13.25,-1.0,-20.5,58.5,-9.25,22.25,89.0,7
24.25,-10.5,-22.0,-15.5,73.25,25.75,8.25,72.25,7
20.25,-13.25,-19.25,-32.5,39.25,31.75,10.25,61.5,7
16.75,-8.5,-22.5,-29.25,52.5,33.0,23.5,73.75,7
23.0,7.75,-25.0,-20.25,62.0,35.25,26.0,48.0,7
5.5,14.0,-4.0,-21.0,59.0,29.25,31.25,35.0,7
18.75,4.75,-15.75,-25.5,70.25,36.25,21.25,7.0,7
14.75,-1.5,-12.5,-30.75,54.75,14.0,32.25,-48.0,7
27.0,1.25,-10.75,-22.0,75.25,-4.5,41.0,-100.25,7
26.0,18.5,-5.75,-18.25,92.5,-3.25,20.75,-28.5,7
14.75,9.75,-15.25,-20.75,74.25,12.25,23.5,47.25,7
21.25,0.75,-19.0,-22.5,78.5,19.75,21.0,22.25,7
-5.75,3.25,-13.75,-25.75,63.0,5.25,19.0,49.25,7
-15.5,8.5,-19.0,-23.0,36.75,-6.25,27.25,44.0,7
-6.25,6.0,-9.75,-18.25,29.25,7.5,23.0,29.75,7
-16.0,4.75,-8.75,-22.0,11.75,14.0,21.5,21.25,7
-46.5,3.5,7.0,-10.5,-34.75,13.0,26.5,-2.25,7
-90.25,-0.25,24.0,-6.5,-83.5,4.25,38.0,2.5,7
-101.5,4.25,27.25,-17.75,-55.5,-5.5,34.25,3.25,7
-77.0,2.0,15.0,-11.0,-52.0,5.5,23.25,12.75,7
-88.25,7.5,7.25,-11.25,-73.5,6.0,19.75,-3.75,7
-92.0,6.75,13.25,-9.25,-52.75,6.75,35.25,2.75,7
-76.25,-7.5,17.75,-6.75,-46.5,4.0,34.75,16.0,7
-68.75,7.5,22.25,-16.5,-18.5,10.5,25.0,17.25,7
-44.25,13.25,13.5,-11.0,-4.75,26.25,35.0,36.0,7
-34.5,6.25,18.75,-11.75,5.75,36.25,31.25,29.25,7
-20.0,11.5,13.25,-12.25,25.75,31.5,24.25,26.5,7
-7.75,9.5,7.0,-1.25,37.0,30.5,28.75,48.75,7
-4.5,4.5,5.75,-7.25,49.5,46.25,21.75,58.5,7
14.0,-0.75,-8.25,-8.25,57.75,54.5,19.0,49.5,7
14.75,0.5,-21.75,-7.25,64.5,43.25,32.25,41.5,7
7.75,-11.75,-28.5,-11.25,67.5,34.0,38.25,37.75,7
23.0,-10.25,-23.75,-10.25,86.0,40.25,24.25,47.0,7
45.25,3.75,-33.75,-11.25,104.75,51.75,24.5,47.0,7
57.0,3.0,-33.0,-8.25,92.5,57.25,30.75,11.25,7
30.25,5.0,-20.5,-2.5,71.25,49.5,29.5,2.75,7
0.75,-4.5,-24.25,3.25,48.0,48.5,23.75,-4.25,7
-22.5,-15.25,-11.0,1.5,22.25,38.5,15.25,-8.0,7
-35.75,-4.75,-1.0,10.25,5.5,16.0,31.75,-1.5,7
-15.5,10.0,-3.25,12.75,-4.5,18.75,40.5,17.25,7
-28.0,7.5,8.0,11.25,-2.5,17.0,37.25,42.25,7
-27.0,19.0,4.5,11.75,-16.25,19.75,41.75,23.25,7
-21.75,3.5,-6.5,-3.0,-16.5,21.0,36.75,38.5,7
-29.75,9.75,2.75,3.75,-7.75,19.5,19.5,52.0,7
-11.25,8.0,0.5,-1.0,-8.5,19.5,18.25,23.5,7
-6.0,-2.75,-3.25,-11.5,7.25,21.75,16.75,6.5,7
-6.75,7.5,-10.25,-28.0,2.0,23.0,24.25,28.5,7
-5.5,-8.25,-17.25,-39.25,15.5,14.0,26.75,68.75,7
4.75,9.0,-15.0,-42.0,23.75,15.5,15.0,72.5,7
-15.75,10.0,-12.0,-42.0,-13.25,12.75,25.75,60.5,7
-37.0,5.75,-2.25,-33.0,-19.75,2.75,30.75,36.75,7
-9.5,6.5,-14.75,-35.75,4.75,1.75,28.75,0.25,7
-10.0,15.5,-23.0,-37.5,18.5,-3.0,27.0,-45.25,7
-20.75,8.5,-23.25,-40.75,22.5,-6.75,13.5,-45.0,7
-12.25,-4.5,-23.25,-32.5,23.0,-6.25,11.0,-64.75,7
-22.75,10.0,-8.75,-34.0,6.25,-1.75,18.5,-71.5,7
-31.5,0.25,-1.0,-39.25,-0.5,7.25,12.0,4.5,7
-41.0,3.0,-0.25,-32.25,-13.75,-10.0,9.0,17.0,7
-41.0,1.75,10.5,-28.5,-17.5,-18.5,4.0,-4.5,7
-49.5,9.0,6.5,-23.5,-10.75,-9.0,-5.5,1.0,7
-39.5,7.0,6.5,-25.0,-13.75,-7.25,8.5,3.25,7
-31.0,-5.75,5.5,-13.0,-7.25,-2.5,8.0,3.5,7
-29.5,1.75,-10.5,3.25,11.0,4.0,4.0,10.25,7
-7.5,-0.5,6.5,-0.5,15.5,4.75,16.5,19.0,7
-12.0,13.25,10.5,-7.75,20.0,1.0,13.25,22.0,7
16.25,-4.25,-14.5,-18.5,66.75,32.0,8.75,39.25,7
68.75,-0.5,-25.5,-21.0,96.5,70.0,5.0,34.75,7
72.5,5.75,-35.0,-22.25,78.25,56.5,11.5,27.0,7
57.75,-8.75,-32.25,-36.25,94.5,36.25,14.5,25.25,7
80.25,0.0,-51.0,-40.75,97.75,46.5,10.75,31.75,7
62.5,1.25,-48.25,-34.75,88.75,40.75,20.25,48.25,7
61.25,5.25,-37.0,-32.0,87.75,53.0,18.75,41.5,7
55.75,0.25,-31.0,-18.0,78.75,59.0,28.0,47.0,7
37.5,8.25,-3.0,-16.25,87.25,57.5,38.0,57.25,7
28.75,13.0,5.25,-7.75,68.5,43.0,30.25,39.0,7
3.75,17.25,-7.75,-12.0,49.5,11.25,23.0,61.75,7
-1.25,20.5,-5.25,-21.25,21.75,26.75,24.75,87.75,7
-15.0,23.25,0.0,-9.25,20.75,31.25,29.75,70.0,7
-28.25,33.0,3.75,13.75,20.0,31.25,19.75,50.75,7
-37.5,20.25,6.25,12.25,1.75,28.75,31.75,39.5,7
-40.75,22.75,10.25,0.5,-13.25,34.5,36.0,9.5,7
-52.0,17.0,17.75,10.25,-35.25,29.75,36.5,-22.25,7
-84.5,6.5,24.25,13.25,-52.5,23.75,31.5,-76.5,7
-95.5,2.25,22.0,-6.25,-30.5,46.75,32.75,-157.5,7
-66.5,-1.25,-4.75,-6.75,-7.5,43.25,44.5,-135.5,7
-47.5,12.5,-7.75,-7.0,1.0,43.25,25.0,-57.25,7
-30.75,3.5,3.0,-20.0,33.5,50.5,15.25,-22.25,7
-6.5,-2.5,-2.5,-16.25,32.25,53.75,21.75,7.5,7
0.0,4.0,-12.75,-27.5,43.0,34.75,11.5,22.5,7
5.25,-2.25,-19.75,-23.5,57.0,15.25,16.75,28.0,7
19.25,2.75,-12.75,-14.75,62.75,26.25,19.5,35.75,7
25.5,-2.5,-13.25,-22.0,59.75,44.0,17.5,53.5,7
25.75,-8.25,-10.5,-18.5,50.0,45.75,17.0,46.75,7
17.25,-9.5,-8.75,-16.25,62.25,33.5,8.25,25.5,7
4.75,-12.25,-19.0,-13.0,48.0,35.5,27.5,26.0,7
6.25,-4.75,-21.25,-7.5,41.5,38.5,37.5,19.75,7
-5.0,-1.0,-13.25,-11.0,26.25,33.5,35.0,27.0,7
-10.0,3.75,6.25,-15.5,28.75,41.5,41.75,25.75,7
4.25,9.0,-16.25,-8.5,44.25,44.0,26.25,25.75,7
22.5,3.5,-35.75,-14.75,48.0,45.75,33.5,43.25,7
-1.25,-4.75,-4.0,-3.75,21.75,49.25,45.25,69.0,7
-22.0,9.75,-4.25,-2.25,26.25,48.5,49.75,59.0,7
6.75,8.75,-3.0,3.5,40.25,55.75,47.5,46.0,7
2.25,2.25,-4.75,-0.75,36.5,58.5,54.0,31.75,7
10.75,5.75,3.75,14.25,46.75,50.75,62.0,-4.5,7
20.5,9.5,4.5,19.25,54.25,45.25,48.0,-38.0,7
18.25,6.75,-14.25,-5.5,58.25,35.5,37.5,-84.25,7
14.0,0.0,-15.75,-0.5,38.25,15.0,24.5,-67.0,7
5.0,-1.5,-29.5,-15.75,54.0,11.75,13.25,7.0,7
17.5,10.25,-26.25,-11.25,47.0,13.5,4.0,17.5,7
11.75,8.25,-17.25,-8.75,27.75,10.75,7.5,9.25,7
10.0,-6.25,-19.0,-17.25,30.5,2.5,13.5,43.5,7
12.0,9.25,-12.5,-24.0,0.75,1.25,4.75,30.5,7
-4.0,30.0,-2.25,-24.0,-16.0,8.75,13.5,32.25,7
-29.25,39.5,-6.75,-21.5,-47.75,9.75,15.0,46.25,7
-73.5,44.25,9.25,-32.0,-58.5,7.25,17.5,33.0,7
-83.0,39.0,10.5,-25.5,-45.0,7.75,34.25,13.25,7
-71.25,29.75,16.5,-30.75,-48.0,-11.25,32.5,2.5,7
-83.25,24.0,26.5,-36.75,-45.75,-9.5,23.0,-22.0,7
-66.75,31.5,19.75,-35.75,-53.75,-5.5,20.5,-48.5,7
-79.25,32.25,30.25,-41.5,-62.75,-18.0,17.0,-75.75,7
-64.0,26.25,24.25,-26.5,-43.5,-1.5,22.25,-117.75,7
-46.0,24.0,13.0,-20.75,-16.25,11.75,28.25,-51.75,7
-38.25,12.75,10.5,-17.75,-3.25,23.75,26.25,56.75,7
-20.75,-4.25,7.25,-0.5,14.75,19.0,24.75,45.5,7
-13.5,1.0,-1.75,0.0,29.25,22.5,19.75,53.0,7
3.75,-6.75,-2.5,-5.5,47.0,29.75,12.0,51.0,7
11.75,-12.0,-10.75,-11.5,61.0,29.75,9.0,44.25,7
31.75,-11.75,-14.25,-6.5,55.5,38.5,25.0,77.25,7
44.0,-10.25,-9.5,-4.0,67.5,38.0,17.25,85.0,7
56.75,0.25,-37.25,-17.5,92.0,40.0,-2.25,136.25,7
76.75,-14.75,-43.25,-29.5,111.0,50.75,16.5,140.5,7
90.25,-11.25,-38.5,-21.0,106.5,51.5,9.5,148.75,7
54.0,-3.0,-26.0,-24.5,79.0,33.25,12.0,123.0,7
34.25,11.25,-15.75,-38.25,76.0,19.5,30.75,55.25,7
25.5,4.75,-14.25,-38.75,55.0,16.25,16.0,19.0,7
11.0,2.25,-4.5,-29.0,42.25,2.75,24.0,-27.25,7
14.5,8.75,-1.5,-8.5,22.25,21.25,26.25,-109.5,7
-14.75,18.25,11.5,-12.25,10.0,36.5,27.25,-144.0,7
-27.75,29.0,3.0,-16.25,16.25,29.5,31.25,-84.5,7
-29.75,6.75,-1.25,-15.0,5.0,30.5,21.25,-70.0,7
-35.5,14.25,-1.75,-20.5,8.5,29.0,21.25,-1.0,7
-23.75,16.75,-15.25,-17.0,15.75,37.75,27.0,56.75,7
-8.5,7.25,-9.75,-27.5,22.5,34.0,28.75,35.75,7
-20.5,10.75,-14.75,-14.0,27.75,33.75,18.0,56.5,7
-5.25,9.25,-15.5,-13.5,34.75,36.5,19.0,39.0,7
7.0,6.25,-11.75,-15.0,27.25,29.5,11.5,35.75,7
-26.75,6.75,-13.5,-7.75,2.75,30.5,18.5,30.0,7
-33.25,-2.5,-2.75,-20.75,-6.5,34.5,18.75,30.25,7
-13.75,-24.0,-15.25,-28.25,7.25,34.0,23.25,43.75,7
4.0,-9.25,7.0,-24.25,15.5,28.25,31.75,43.0,7
4.0,0.5,5.75,-12.5,24.0,22.75,27.5,44.5,7
8.5,-15.75,-12.75,-12.0,28.75,32.25,30.75,40.75,7
4.75,-11.5,2.75,-10.5,28.5,42.0,13.25,27.75,7
3.25,-14.25,4.25,-1.5,15.5,25.5,29.5,38.75,7
-2.75,-35.0,11.25,3.75,12.5,35.0,38.0,54.5,7
-14.5,-30.75,15.5,-3.75,7.25,26.5,28.75,36.0,7
-22.25,-26.5,11.75,-7.25,-8.75,11.5,40.0,30.25,7
-39.0,-26.75,9.25,-20.75,-16.75,21.0,26.0,22.25,7
-44.75,-24.75,16.5,-21.75,-7.0,5.5,26.5,24.0,7
-39.75,-43.75,13.0,-16.25,-5.5,6.75,41.5,9.75,7
-40.75,-36.0,9.5,-13.75,-4.25,3.75,37.25,11.75,7
-29.25,-28.75,11.25,-5.0,16.0,12.5,29.5,36.0,7
-2.5,-40.75,1.0,-1.75,57.0,30.75,22.75,37.0,7
42.0,-26.5,-19.25,2.25,80.0,34.5,24.75,53.75,7
37.75,-28.25,-24.25,-3.0,63.25,29.0,29.5,45.25,7
16.25,-26.75,-22.5,-8.25,77.5,29.25,40.75,38.5,7
36.0,-11.0,-19.75,-14.5,80.5,35.25,45.75,46.75,7
36.75,-4.5,-6.75,-3.25,78.25,36.5,36.25,43.25,7
38.5,8.75,-11.5,3.75,87.5,37.25,26.0,16.75,7
26.5,1.75,-10.75,-1.5,81.0,31.5,30.75,23.0,7
28.75,-10.0,-9.75,-2.75,66.75,26.75,24.75,41.25,7
23.0,-6.25,-15.75,-7.5,49.0,20.25,15.5,22.25,7
-5.25,-9.25,-20.5,-1.5,43.0,9.75,18.0,33.75,7
-11.0,-12.5,-18.0,0.5,27.75,7.75,7.25,17.0,7
-18.75,-13.0,-18.0,-0.5,24.75,18.0,11.75,-1.5,7
-18.75,-12.25,10.0,-9.75,21.75,8.25,12.0,-2.5,7
-34.25,-10.5,10.75,-6.75,18.5,-4.75,9.5,-41.25,7
-62.75,7.25,-9.75,10.0,12.0,3.0,12.0,-26.5,7
-69.5,15.0,19.5,-2.25,-33.5,3.25,33.0,-2.75,7
-97.0,23.5,25.75,-5.5,-72.25,-13.25,30.5,-1.0,7
-105.5,32.5,17.25,-10.5,-63.25,-8.25,25.5,0.5,7
-70.0,32.75,2.5,-16.75,-35.0,-1.0,28.5,-2.25,7
-66.5,44.25,-5.75,-10.0,-39.75,-1.25,20.75,-1.75,7
-44.5,40.75,2.0,-13.5,-27.25,0.75,23.0,3.75,7
-28.0,26.75,-9.25,-18.0,-4.75,-0.75,22.0,16.75,7
-30.5,35.0,-9.5,-24.75,-9.0,5.75,17.0,-1.0,7
-5.5,30.75,-18.75,-26.0,2.25,14.5,24.25,13.5,7
-2.5,26.75,-25.25,-23.25,12.25,21.75,27.75,44.75,7
-3.5,31.0,-22.5,-11.25,18.5,4.5,11.25,41.0,7
7.25,29.0,-32.25,-17.0,34.25,6.0,2.75,60.25,7
6.0,23.75,-20.0,-22.5,43.0,9.75,4.25,98.75,7
12.0,22.5,-10.25,-28.25,30.75,-11.0,17.5,90.25,7
10.75,21.5,-17.25,-36.0,22.25,-6.25,16.75,28.25,7
-3.5,15.0,-21.0,-30.75,22.75,4.75,16.0,-0.75,7
0.75,2.5,-20.0,-36.25,38.75,11.75,17.5,9.0,7
18.75,11.0,-22.75,-32.25,71.5,15.5,24.0,-16.0,7
31.25,22.25,-23.75,-18.25,55.75,3.0,33.0,-58.0,7
7.25,16.75,-18.5,-14.5,40.5,30.0,27.0,-118.25,7
-7.75,17.5,-13.25,-7.5,44.25,38.5,34.25,-96.75,7
6.0,14.25,0.75,-4.25,34.25,11.75,43.25,25.0,7
-7.5,20.5,1.5,5.75,32.25,9.75,38.0,12.5,7
-4.75,-0.75,-8.25,4.5,22.0,7.25,39.25,4.25,7
-1.75,-8.0,1.0,-2.25,32.25,8.25,41.5,40.25,7
0.0,10.25,2.5,-0.25,23.5,12.75,26.0,24.5,7
-4.25,4.75,-0.5,-18.25,25.5,28.0,26.25,56.5,7
-8.75,6.75,0.0,-19.25,38.25,29.0,27.5,40.0,7
14.25,2.0,-17.25,-10.75,50.25,25.25,18.25,53.0,7
17.0,-6.25,-27.0,-17.25,59.0,28.75,23.25,68.25,7
5.5,-14.5,-19.75,-11.25,46.0,21.75,21.75,45.5,7
17.0,-23.75,-20.25,-10.25,57.5,37.0,18.5,42.0,7
29.5,-19.25,-15.0,-0.5,42.5,28.0,28.0,34.75,7
-7.75,-15.5,-7.0,-11.25,4.25,16.5,33.75,33.0,7
-45.5,-15.0,0.0,-28.25,-11.25,20.5,23.0,23.75,7
-42.75,-19.5,4.0,-28.25,4.0,16.0,16.0,17.0,7
-46.5,-17.0,4.0,-41.5,-0.25,21.0,17.0,1.5,7
-65.5,-19.5,3.75,-38.25,-10.0,10.75,10.0,-25.5,7
-57.75,-13.5,8.75,-22.0,-7.75,11.5,4.75,-24.0,7
-61.0,-3.75,16.5,-18.5,-17.0,18.0,15.0,-9.25,7
-64.75,-9.75,13.5,-6.25,-14.5,19.5,25.5,-17.25,7
-59.5,-17.75,13.75,-11.75,-25.25,31.5,24.75,0.25,7
-58.0,-11.5,10.75,-16.25,-8.5,29.75,23.25,20.5,7
-39.75,-2.75,3.5,-8.0,0.0,35.75,25.0,32.25,7
-31.5,-2.5,-2.75,-20.75,9.25,36.75,27.0,31.25,7
-18.0,-7.25,0.25,-19.75,32.0,37.75,23.75,8.25,7
3.25,-19.25,-11.75,-16.75,28.5,35.5,25.5,16.25,7
10.25,-6.25,-1.25,-17.0,40.5,36.75,28.0,10.25,7
12.5,-5.5,-7.0,-1.0,73.25,64.25,29.5,19.75,7
32.5,-14.75,-28.5,-1.5,92.25,57.25,23.25,61.0,7
72.0,-6.75,-36.0,-18.5,106.0,59.75,16.75,76.5,7
78.5,9.0,-37.25,-6.5,98.5,63.25,31.5,68.5,7
55.5,8.25,-16.0,-2.5,75.75,49.5,33.5,67.25,7
54.0,10.0,-10.75,1.25,78.5,58.5,33.75,54.75,7
50.0,22.75,-17.75,5.5,69.0,45.0,44.25,13.5,7
33.75,17.5,-11.75,-6.75,44.75,39.25,28.75,-29.25,7
20.75,14.0,-10.0,-3.75,24.5,48.75,10.5,-93.25,7
-3.75,5.5,2.5,-14.25,12.5,49.0,22.25,-70.5,7
-26.0,-4.0,3.25,-13.75,0.5,47.75,22.0,1.5,7
-34.5,3.25,-7.5,-13.75,-16.0,32.5,31.5,-4.0,7
-36.25,1.75,6.75,-12.0,-14.75,32.0,36.0,-4.5,7
-45.5,1.0,5.25,-0.5,-18.5,41.75,19.0,-4.5,7
-40.75,9.0,16.0,-2.25,-25.0,30.0,31.0,-1.75,7
-35.5,12.5,15.75,-8.75,-19.0,37.25,21.0,14.5,7
-34.75,17.0,3.75,-8.75,-6.5,42.25,19.5,2.0,7
-30.5,8.75,7.25,-9.5,-10.0,32.25,33.25,-3.5,7
-46.25,-0.75,17.25,-15.75,-36.5,52.25,25.0,5.5,7
-56.25,-1.25,13.0,-12.5,-17.25,47.0,29.0,35.75,7
-12.25,1.75,-12.75,-23.75,14.25,24.75,28.5,62.25,7
-2.25,18.0,-10.0,-35.0,10.0,24.25,29.0,81.25,7
1.5,22.5,-17.5,-36.0,29.25,45.75,28.75,86.25,7
14.5,13.25,-20.0,-30.0,32.25,42.0,23.5,68.25,7
15.25,11.75,-18.0,-20.75,36.75,36.75,26.75,12.75,7
12.75,9.75,-15.25,-29.25,43.0,33.75,14.25,-11.75,7
11.0,14.75,-15.0,-27.75,27.25,26.75,8.0,-49.5,7
4.25,24.5,-17.25,-19.5,14.0,18.5,25.5,-152.75,7
-14.75,27.5,-8.0,-23.75,9.75,8.5,13.75,-148.25,7
-21.5,24.25,-12.0,-23.75,5.5,17.75,13.0,-44.0,7
-34.25,19.0,7.5,-20.5,-11.5,11.0,22.25,-20.5,7
-31.0,23.25,0.0,-19.0,-9.5,20.5,20.0,15.75,7
-30.5,16.5,14.5,-25.75,-2.75,5.25,14.5,72.0,7
-27.0,21.0,20.0,-23.5,10.0,-12.5,6.5,48.25,7
6.75,24.75,5.25,-24.25,39.25,-0.75,6.25,59.0,7
15.25,25.0,2.75,-23.75,69.25,16.25,12.25,46.5,7
14.75,8.0,4.75,-11.75,68.0,32.0,19.25,51.25,7
16.5,20.25,7.75,-15.25,66.75,35.25,34.75,68.0,7
27.0,39.0,-3.0,-16.75,74.5,34.25,32.25,66.75,7
24.5,8.25,8.5,-8.75,72.75,26.25,16.75,61.75,7
30.25,13.25,-8.75,-22.75,83.25,23.25,29.75,40.25,7
33.5,13.5,-10.25,-19.0,82.25,26.25,16.0,52.5,7
32.5,11.75,-10.0,-7.75,72.5,29.25,15.25,59.25,7
26.5,10.75,-27.5,-13.5,51.75,20.25,21.25,38.75,7
0.25,-5.0,-26.5,-11.0,48.5,27.25,16.75,23.25,7
-3.25,-7.0,-19.5,-16.5,41.0,19.5,12.0,19.5,7
-4.5,-14.25,-18.0,-10.0,37.25,13.75,3.75,4.5,7
-13.25,-20.75,-14.25,-5.0,30.0,28.0,16.0,6.75,7
-29.5,-14.0,4.0,-12.75,6.75,13.25,9.75,5.5,7
-51.75,-24.0,-7.25,-17.0,-15.0,10.75,7.5,-8.5,7
-75.0,-18.0,-2.0,-1.5,-44.0,10.75,0.0,6.25,7
-101.5,-20.75,20.75,-7.0,-63.5,5.0,13.75,12.25,7
-109.25,-28.75,24.0,-10.0,-53.25,7.75,18.5,9.0,7
-80.0,-0.25,13.25,-13.25,-46.75,1.5,13.25,4.0,7
-70.0,-4.5,14.5,-16.25,-36.5,-4.25,29.75,-1.25,7
-46.25,-26.25,5.5,-2.25,-14.0,8.5,26.25,-4.75,7
-23.0,-32.0,-8.25,-16.25,-11.75,19.0,30.0,-16.75,7
-15.75,-35.5,-8.25,-6.75,-7.5,21.25,30.25,-26.25,7
-12.0,-32.25,-16.25,-0.25,12.25,32.0,30.75,-9.75,7
-7.0,-22.75,-19.75,-19.5,25.75,31.75,39.5,14.0,7
4.5,-18.0,-25.0,-12.75,33.5,15.5,35.0,18.75,7
11.5,-14.25,-30.5,-24.5,46.5,9.25,23.75,22.5,7
20.75,-6.0,-23.75,-18.75,39.0,26.25,25.0,44.0,7
17.75,-1.25,-22.5,-10.5,42.0,21.75,24.75,41.5,7
23.0,6.5,-20.25,-9.0,43.75,13.25,24.25,31.0,7
19.0,18.75,-15.75,5.5,45.0,21.5,33.0,38.75,7
22.75,21.0,-31.25,-12.0,59.0,18.5,28.5,36.5,7
40.5,25.0,-35.25,-21.5,75.25,25.5,35.5,49.25,7
54.25,27.25,-26.5,-21.75,74.0,43.75,45.5,35.0,7
27.5,38.0,6.75,-19.75,48.25,44.0,51.25,35.75,7
8.5,40.0,10.25,-18.0,43.0,54.0,46.5,31.5,7
1.5,36.75,1.5,-17.75,9.75,46.5,36.0,27.5,7
-12.0,57.5,6.5,-4.75,14.5,34.25,34.5,37.5,7
-15.0,51.25,3.5,-5.25,6.5,13.5,16.25,15.75,7
-35.75,32.75,20.0,-13.5,-0.75,6.5,32.0,27.5,7
-23.5,26.25,4.25,-22.75,12.75,13.75,31.0,32.25,7
-15.25,21.0,4.25,-16.5,3.25,10.75,17.25,29.0,7
-9.25,20.5,4.75,-15.25,9.25,15.25,33.75,8.5,7
0.25,14.25,3.5,-17.25,21.75,16.5,23.5,23.25,7
-6.25,8.75,-1.75,-23.0,31.5,26.75,14.75,39.75,7
-4.25,-3.75,-19.25,-28.5,24.5,25.5,6.75,4.25,7
7.5,-1.75,-16.0,-23.25,28.0,30.5,9.5,-22.0,7
4.5,-7.25,-20.0,-19.5,21.0,10.5,16.0,-11.5,7
-35.75,-1.75,2.5,-8.5,-1.25,9.0,12.5,45.25,7
-53.5,4.5,-9.75,-15.75,-18.25,8.25,18.0,57.25,7
-29.0,-5.0,-8.0,-5.5,9.25,29.5,14.75,52.5,7
-26.0,-4.75,-4.0,-3.25,23.5,40.0,12.25,71.5,7
-38.5,-10.25,-8.25,-7.75,32.75,8.25,23.5,72.0,7
-40.75,-12.25,-1.25,1.0,30.25,14.25,23.25,48.5,7
-40.25,-26.0,-11.75,-15.75,8.25,-2.5,27.25,14.5,7
-41.25,-18.75,-6.0,-1.5,4.75,-12.0,36.5,-56.5,7
-41.5,-17.0,2.25,-7.25,-7.25,-17.75,24.75,-106.0,7
-39.0,-24.0,17.0,-9.25,1.0,-16.5,27.5,-26.0,7
-47.5,-8.25,6.25,1.0,11.25,12.5,28.25,-63.25,7
-38.0,-13.5,14.25,-1.5,23.0,13.25,27.0,-155.25,7
-34.0,-23.75,13.0,-4.5,25.0,17.0,27.75,-92.5,7
-20.0,-15.25,7.25,0.0,29.75,27.75,24.25,24.0,7
1.0,-10.0,2.5,-3.5,45.0,18.75,36.5,40.5,7
12.25,-17.25,-21.25,-22.75,61.0,30.75,20.75,25.75,7
44.0,-26.0,-38.25,-19.25,95.0,44.25,17.25,66.25,7
86.0,-13.75,-61.25,-31.0,107.25,37.75,26.25,51.25,7
100.75,-7.5,-39.75,-16.75,104.5,52.5,37.75,68.75,7
80.75,6.75,-29.0,-11.75,104.25,46.25,38.5,73.25,7
69.25,6.75,-40.75,-19.75,92.75,32.25,24.75,50.0,7
55.75,11.5,-33.5,-18.25,83.25,32.75,29.0,50.75,7
42.75,5.0,-24.5,-16.25,73.75,42.5,21.75,58.5,7
14.5,-1.25,-24.75,-8.0,59.0,39.0,22.25,65.75,7
11.25,15.75,-23.25,-27.25,37.0,45.0,16.25,47.75,7
1.25,7.5,1.0,-11.75,16.75,31.5,17.75,50.25,7
-26.0,-1.25,-2.0,-9.5,13.25,14.25,26.0,40.0,7
-17.0,1.75,-1.5,-21.0,2.0,19.5,28.5,21.5,7
-28.25,11.75,4.25,-22.5,-1.0,15.25,13.25,24.25,7
-34.5,-3.5,9.5,-18.25,-4.5,19.75,2.0,27.25,7
-46.25,-1.75,8.0,-5.25,-5.75,18.75,8.75,13.5,7
-44.5,-0.75,-5.5,-7.0,-6.0,24.25,9.0,-6.25,7
-34.75,-10.25,10.5,-10.25,-8.75,15.0,13.0,-25.5,7
-45.25,-5.5,25.0,-9.0,-20.0,27.5,11.25,-19.25,7
-44.0,-9.25,12.5,-2.0,0.0,40.25,9.25,24.5,7
-6.5,7.75,-5.75,-22.25,28.75,31.75,12.75,29.75,7
11.25,6.0,-4.5,-25.0,20.5,22.0,22.75,28.25,7
21.5,1.75,-7.5,-29.0,33.25,24.75,22.25,33.0,7
34.5,-3.25,-21.25,-47.0,38.0,41.5,13.25,28.25,7
38.5,-5.75,-37.0,-30.0,43.5,31.75,19.0,22.25,7
52.75,-11.0,-39.25,-27.75,41.25,31.25,27.5,17.0,7
53.5,-2.25,-19.25,-20.0,21.5,27.5,22.75,57.75,7
33.0,5.0,-13.25,-29.75,15.25,18.75,27.25,74.75,7
15.75,-0.25,-18.5,-22.0,20.25,22.5,22.25,59.0,7
-7.75,18.75,-2.5,-16.0,14.5,21.0,23.5,46.5,7
-13.75,9.5,4.0,-18.75,26.75,31.0,26.25,12.5,7
-7.25,20.0,2.0,-13.0,26.5,27.5,28.5,6.75,7
-22.25,24.0,1.0,-18.25,18.5,27.5,49.5,13.25,7
-11.5,12.25,0.75,-12.75,30.25,46.75,37.75,-42.0,7
13.75,20.25,-16.75,-10.25,36.75,51.75,37.5,-51.75,7
32.5,35.25,-2.0,14.75,48.5,51.75,36.5,14.0,7
19.0,38.5,13.0,10.25,32.5,55.0,34.75,10.75,7
-6.25,26.5,-14.75,6.25,42.0,48.5,29.75,-20.0,7
-2.0,27.25,-11.5,2.25,39.5,44.0,25.5,-24.0,7
-2.0,17.5,-11.5,-10.75,42.0,37.75,38.25,-52.25,7
8.5,24.25,-9.75,-13.5,50.0,41.5,34.75,-16.5,7
5.75,17.0,-12.5,-25.5,45.25,48.75,36.25,41.5,7
-1.75,10.0,-17.0,-28.75,44.75,35.0,26.0,38.0,7
1.0,7.75,-15.5,-27.0,36.5,31.25,26.25,40.0,7
3.25,10.25,-13.25,-11.0,41.0,30.0,18.5,32.25,7
-1.25,10.0,-21.25,-15.0,37.0,30.5,20.5,38.5,7
-5.25,-12.75,-33.25,-27.25,30.25,40.5,34.5,30.25,7
-19.0,-9.5,-17.75,-20.0,6.5,37.25,30.0,6.75,7
-24.5,-11.5,-11.75,-20.25,0.75,27.5,31.75,20.0,7
-25.5,-7.75,-5.25,-12.0,-3.0,11.0,22.5,14.5,7
-65.5,7.75,7.5,-4.75,-37.0,13.75,31.25,25.25,7
-103.5,9.0,37.75,-1.75,-44.75,-4.0,32.25,12.25,7
-96.25,20.75,47.25,-3.5,-44.25,6.0,28.0,-3.25,7
-78.25,11.0,19.0,-22.25,-32.5,19.25,24.25,-2.25,7
-80.75,4.0,31.0,-7.0,-37.75,8.5,22.75,-4.0,7
-73.75,11.75,33.0,1.5,-31.75,13.75,30.0,-5.0,7
-65.0,8.5,26.0,-7.0,-16.0,8.25,21.25,-3.5,7
-47.25,10.0,14.0,6.75,-24.5,9.25,35.25,7.25,7
-55.75,1.0,19.0,-4.5,-15.5,5.0,30.0,-4.75,7
-42.25,3.75,12.75,-13.5,-6.0,15.5,21.5,0.0,7
-9.0,-6.75,-8.0,-13.75,-0.25,20.75,22.75,7.75,7
-28.0,-13.0,-2.75,-7.5,5.25,6.5,19.25,1.5,7
-22.5,-3.0,-11.75,-20.75,21.75,11.25,23.5,9.75,7
-5.0,-9.5,-12.25,-30.5,28.5,17.5,16.75,21.5,7
0.25,-6.0,-11.25,-23.0,24.25,17.0,11.5,10.5,7
0.25,-8.5,-14.5,-30.5,28.0,18.0,14.5,11.75,7
20.25,-4.0,-31.75,-16.5,36.75,22.25,16.5,26.75,7
41.5,1.25,-43.0,-24.5,71.5,26.25,27.5,39.75,7
41.5,-2.75,-26.5,-19.5,49.5,23.0,19.25,24.5,7
22.25,-1.25,-15.0,-18.75,23.75,7.75,13.75,20.75,7
-6.75,1.25,-13.5,-36.5,24.25,8.25,33.5,31.75,7
-15.25,6.0,-11.0,-17.5,3.5,14.75,27.25,12.75,7
-21.75,5.5,3.75,-7.0,-3.25,17.5,30.25,9.0,7
-29.25,-3.0,16.75,-7.0,-8.75,26.5,36.25,-6.5,7
-43.5,-1.0,28.5,-14.75,-0.75,5.5,27.5,-3.0,7
-48.0,8.25,26.25,-23.5,-5.0,6.0,22.0,17.5,7
-52.75,10.25,15.0,-18.0,-18.0,14.5,37.75,13.75,7
-55.75,13.75,14.0,-10.5,-10.5,11.75,27.75,8.0,7
-49.0,4.0,5.75,-11.0,0.25,7.75,14.5,-4.25,7
-29.75,4.25,4.75,-16.75,13.5,2.75,16.25,-8.75,7
-25.75,1.0,-0.75,-20.5,23.25,10.75,13.0,0.75,7
-8.75,-11.5,4.0,-30.0,35.0,21.75,7.5,4.5,7
-4.25,-5.0,9.0,-20.75,18.75,22.5,8.25,13.5,7
-35.0,-0.75,12.5,-17.0,-0.5,15.75,14.0,11.75,7
-54.0,-2.25,24.25,-23.5,6.75,21.25,-0.25,27.75,7
-35.75,-10.25,8.5,-18.25,13.5,27.25,10.25,47.5,7
-16.75,-5.5,6.25,-16.5,19.25,31.75,20.5,21.75,7
-10.5,10.25,-5.25,-11.25,26.75,32.25,22.5,28.0,7
-11.25,15.25,-13.0,1.0,24.0,39.75,28.5,37.5,7
-18.5,6.75,-3.0,-2.75,17.5,34.5,12.0,67.25,7
-25.0,10.25,2.0,3.25,21.75,27.5,13.75,94.0,7
-28.5,8.75,11.0,-4.0,17.0,38.5,19.75,71.25,7
-32.0,1.0,-4.25,-13.0,10.75,30.25,25.0,60.5,7
-34.75,6.25,-5.25,-4.0,6.5,24.25,21.5,37.75,7
-44.75,12.0,10.0,-6.0,-5.0,14.75,27.25,4.5,7
-38.25,18.0,6.75,-0.75,8.0,2.5,29.25,-14.5,7
-22.0,14.75,-3.5,-6.75,14.25,17.5,22.25,-89.25,7
-21.25,17.75,-12.0,-0.75,25.0,17.5,32.5,-127.75,7
2.75,17.75,-14.0,-3.75,36.75,45.25,37.25,10.75,7
31.75,15.25,-25.25,1.0,70.5,67.0,43.25,49.0,7
76.5,20.0,-33.75,11.25,96.0,45.5,43.75,-22.25,7
82.0,22.0,-32.25,-6.5,62.0,55.75,29.5,11.0,7
56.0,18.25,-33.0,-8.25,78.5,37.75,33.0,76.75,7
74.75,23.5,-42.25,-18.5,78.5,35.5,33.0,106.5,7
69.0,30.5,-48.0,-26.5,72.25,47.5,25.75,119.5,7
57.75,13.75,-46.25,-21.0,82.75,35.5,38.25,131.5,7
49.25,18.0,-36.5,-24.75,62.0,35.75,16.25,107.75,7
46.75,18.25,-30.0,-19.0,56.25,36.5,18.0,91.25,7
29.25,10.5,-21.25,-22.75,43.0,39.5,44.25,31.0,7
15.0,4.75,-8.0,-14.25,36.0,23.25,29.75,-70.75,7
0.75,3.25,-5.25,-23.5,29.75,17.75,28.75,-131.0,7
-19.25,5.5,-2.75,-36.25,21.25,15.75,20.5,-147.25,7
-29.25,0.5,2.25,-10.75,27.5,23.5,19.0,-126.25,7
-31.5,0.0,10.0,-2.25,13.0,17.75,18.5,-20.25,7
-37.0,-9.25,21.25,9.25,3.75,14.75,30.5,66.0,7
-61.25,10.25,39.75,13.25,-11.0,29.75,35.0,41.25,7
-77.25,4.0,46.25,0.5,-36.0,19.0,26.25,55.5,7
-78.5,-11.5,37.75,-4.75,-8.25,19.75,23.75,33.75,7
-46.0,-15.5,28.5,-11.0,14.25,17.25,24.5,38.5,7
-41.25,-8.25,16.0,-12.75,16.25,24.0,24.5,56.25,7
-14.0,-2.25,2.25,-35.25,23.75,18.5,19.0,50.75,7
10.25,-15.5,-3.5,-38.25,27.5,14.75,24.75,42.0,7
1.0,-7.25,-13.25,-30.5,26.25,17.5,4.75,24.25,7
14.25,-18.75,-20.0,-32.0,38.5,8.5,6.25,33.0,7
5.75,-21.0,-24.0,-35.25,36.75,8.25,7.75,30.75,7
14.25,-23.5,-26.0,-44.25,32.0,2.25,9.75,38.5,7
7.0,-20.0,-31.75,-40.75,25.0,2.75,11.0,32.75,7
-1.5,-10.25,-23.25,-32.75,18.0,2.75,11.75,33.0,7
-9.5,-21.25,-12.5,-27.0,19.75,5.75,19.0,55.75,7
-14.75,-12.5,-9.75,-19.75,8.75,17.0,11.25,59.25,7
-12.0,1.5,-10.75,-8.75,2.5,16.5,26.0,42.75,7
-11.5,-0.5,-1.25,-5.5,17.25,27.25,21.25,35.0,7
22.5,9.75,-11.25,-3.0,40.0,36.5,17.75,19.5,7
21.5,16.5,-24.75,-7.75,31.25,24.25,20.25,4.25,7
-6.25,12.25,-7.25,1.5,38.25,16.5,19.75,-5.5,7
-13.75,5.75,-6.75,-2.75,44.25,15.75,16.5,-34.75,7
-10.5,18.25,-16.5,-7.75,35.75,15.75,22.5,-47.25,7
-17.5,21.75,-19.25,-10.0,31.75,10.0,17.0,-4.0,7
-14.5,13.0,-23.75,-9.25,24.75,20.0,-0.75,9.75,7
-12.5,36.0,-30.0,8.0,30.0,10.0,14.25,-19.5,7
-6.25,31.75,-23.75,-4.5,11.25,12.75,23.25,-10.5,7
-2.25,22.75,-15.75,-3.0,21.25,23.5,27.75,13.25,7
3.0,29.75,-28.25,-7.5,33.0,22.25,31.5,38.0,7
17.5,33.75,-27.0,-9.25,32.25,23.75,17.75,27.25,7
10.5,34.25,-27.25,7.5,41.0,8.5,21.75,32.75,7
14.0,36.5,-27.25,-3.5,27.5,12.5,20.5,17.75,7
2.0,29.25,-18.5,-11.0,31.0,14.0,18.75,14.5,7
-23.0,18.5,-8.75,2.25,13.75,12.25,22.25,19.75,7
-39.75,24.25,0.0,1.75,-8.25,19.5,16.0,-6.5,7
-71.5,25.75,25.0,-3.0,-26.0,19.5,26.5,21.0,7
-67.75,29.5,29.5,9.0,-26.75,18.0,33.75,21.5,7
-58.5,22.25,13.5,1.25,-17.75,5.5,20.25,32.0,7
-76.0,10.5,23.75,1.75,-16.75,19.5,35.25,31.0,7
-61.0,10.5,23.75,-5.25,-11.25,34.75,42.5,48.5,7
-54.75,21.25,14.75,-16.5,2.75,40.0,31.25,93.25,7
-38.75,26.5,4.75,-2.75,3.0,37.5,30.25,83.5,7
-24.5,12.5,8.25,-6.5,1.75,30.0,20.75,59.5,7
-32.0,13.75,3.0,-18.25,18.0,39.75,25.75,22.0,7
-13.75,14.0,-5.0,-7.25,21.0,33.0,36.5,2.75,7
1.75,0.75,-2.25,-6.0,37.25,42.5,25.75,-35.75,7
13.75,-9.5,-6.25,-13.25,41.5,37.0,21.5,-74.5,7
33.5,4.0,-23.0,-19.0,54.75,44.5,15.0,-76.0,7
36.0,7.25,-16.0,-16.5,66.75,55.25,27.75,22.5,7
30.25,4.75,-1.75,-12.0,74.5,46.0,40.25,82.25,7
55.0,13.25,-31.25,-38.25,84.0,53.25,31.25,25.5,7
99.5,-0.5,-43.0,-52.25,90.0,37.0,23.0,34.25,7
93.75,-5.0,-16.5,-55.5,94.0,35.75,22.25,28.5,7
72.25,-13.5,-9.5,-49.25,84.5,13.75,33.0,32.25,7
58.75,-6.5,-1.25,-37.5,75.5,21.25,26.5,38.75,7
26.25,-3.5,9.5,-45.0,55.0,37.25,28.0,43.0,7
8.5,-24.5,11.5,-45.5,53.25,33.0,35.0,36.25,7
-11.0,-11.5,5.0,-54.25,29.75,41.5,32.25,17.25,7
-32.5,-15.5,2.25,-43.0,16.5,30.0,36.75,27.75,7
-37.0,-14.25,8.75,-31.25,15.0,41.5,23.5,11.25,7
-46.25,-4.25,7.0,-34.0,14.25,32.5,22.5,23.0,7
-42.25,-18.25,3.75,-26.0,11.75,21.5,19.0,8.75,7
-25.5,-16.5,6.25,-30.0,14.75,25.75,9.25,-4.25,7
-32.25,-15.0,1.5,-30.75,15.0,9.0,21.75,7.0,7
-24.5,-21.75,-7.25,-21.75,15.0,22.75,31.5,13.5,7
-17.5,-26.25,-6.25,-13.75,17.75,23.75,17.0,13.25,7
-32.25,-16.75,-16.0,-26.5,4.0,20.5,19.5,-6.0,7
-51.75,-6.0,-12.0,-20.25,6.5,14.75,12.75,5.25,7
-63.0,-12.75,-5.25,-2.75,1.5,13.75,0.0,3.75,7
-40.25,-30.5,-8.75,-8.5,3.25,25.25,7.5,3.75,7
-33.75,-20.5,-8.25,-6.0,1.0,32.75,2.5,-8.25,7
-16.25,-16.5,-18.0,-14.0,14.25,38.0,13.25,-24.0,7
-12.75,-26.25,-13.5,-20.0,19.25,29.75,24.0,7.0,7
-15.0,-14.75,-14.25,-24.25,11.0,24.5,25.5,0.75,7
-13.75,0.25,-21.25,-1.0,13.5,39.0,40.0,7.75,7
-28.5,-14.0,-10.5,10.5,13.25,28.0,43.25,37.25,7
-26.5,-3.25,-15.0,-8.5,8.75,36.75,32.5,25.0,7
-33.75,11.5,-14.5,-0.25,-3.5,32.0,21.75,33.0,7
-29.25,9.25,-12.0,-1.0,4.5,23.25,16.25,36.0,7
-34.75,22.75,-9.5,0.5,9.5,41.0,38.5,19.5,7
-36.75,13.0,-4.5,9.75,16.25,30.25,35.25,30.5,7
-28.5,15.0,6.5,19.5,33.75,28.25,36.75,53.25,7
-12.5,27.5,11.5,20.5,50.25,44.75,45.25,63.0,7
15.75,34.75,-11.0,11.75,61.5,42.5,39.0,54.25,7
53.75,21.25,-22.75,15.25,68.75,21.75,37.75,80.75,7
45.25,21.0,-20.0,10.5,55.25,28.75,33.5,104.25,7
45.5,43.75,-29.75,4.5,54.75,29.0,38.5,77.5,7
66.0,23.25,-33.5,-5.5,50.25,14.0,26.0,38.25,7
44.25,20.75,-27.0,-3.5,42.25,6.25,24.0,-24.25,7
40.5,17.25,-23.25,-1.75,48.0,3.75,17.5,-130.0,7
31.75,1.75,-21.75,4.75,53.5,31.0,11.25,-134.5,7
27.0,-1.5,-26.0,4.5,46.25,22.25,28.0,-37.25,7
14.5,-8.5,-17.75,-18.75,44.25,13.5,31.75,-76.0,7
10.75,-9.0,-13.25,-26.0,41.5,9.5,19.0,-81.75,7
-1.25,-18.75,-3.25,-18.25,16.25,-0.5,26.25,52.25,7
-8.5,-25.25,-3.25,-16.5,10.5,17.0,28.0,47.75,7
-16.75,-15.25,-3.75,-26.25,4.0,3.75,32.0,23.75,7
-49.5,-18.5,22.75,-24.0,-4.0,11.5,29.5,31.5,7
-54.5,-22.0,12.25,-27.0,-21.5,16.75,17.5,3.0,7
-78.0,-9.5,16.25,-26.0,-29.25,15.5,27.0,-15.0,7
-118.0,-2.5,37.0,-26.0,-25.0,13.5,15.25,-36.25,7
-115.0,-15.5,26.0,-22.0,-24.5,4.0,17.75,26.25,7
-82.0,-29.75,19.0,-13.5,-13.75,9.5,31.0,63.0,7
-67.5,-21.5,16.5,-7.5,-22.25,1.5,23.0,55.25,7
-46.75,-19.75,-0.25,-11.25,-11.75,-0.75,15.75,58.0,7
-38.0,-20.75,3.75,-9.5,-2.25,5.25,18.0,50.75,7
-15.5,-28.25,-9.75,-11.75,-0.75,1.5,18.75,36.75,7
1.0,-31.5,-8.0,-19.0,5.0,-13.75,21.25,41.0,7
3.5,-19.75,-10.25,-17.0,5.5,-5.5,28.25,44.5,7
21.0,-20.5,-26.75,-19.25,-0.25,19.25,27.25,-59.25,7
13.75,-17.25,-19.75,-7.5,6.5,26.5,21.25,-87.75,7
18.25,-13.25,-24.75,-10.25,23.25,35.0,17.5,-3.25,7
15.5,-13.75,-12.5,-6.5,15.5,31.75,13.25,46.5,7
8.0,-15.25,-2.75,6.25,27.0,35.25,31.75,48.75,7
10.0,-16.75,8.0,8.0,27.5,9.5,37.25,43.75,7
6.75,1.25,1.5,-2.25,29.5,-5.5,21.0,38.75,7
31.0,3.0,-4.5,-10.25,42.25,10.25,26.25,23.0,7
32.5,-1.25,5.0,-0.25,35.75,-8.25,27.75,31.75,7
-5.5,5.25,11.5,-9.0,13.25,9.25,20.25,24.5,7
-3.0,-2.75,8.5,-17.5,9.0,29.75,19.25,23.5,7
-6.75,-4.75,14.5,-21.75,11.5,26.0,16.0,20.5,7
-25.5,-1.25,18.0,-35.0,4.25,29.5,13.0,2.75,7
-12.75,10.25,4.5,-44.0,13.0,30.75,23.0,2.25,7
-14.75,6.75,0.0,-44.75,4.25,28.25,16.75,10.0,7
0.0,-8.25,8.25,-41.25,16.75,29.25,19.0,7.75,7
14.25,-1.25,10.75,-44.5,24.5,43.5,35.75,15.5,7
5.5,8.5,1.5,-46.5,26.25,34.75,24.5,9.5,7
16.5,25.25,4.5,-28.0,36.0,36.5,28.0,10.25,7
9.25,18.5,9.25,-35.5,33.5,40.25,31.75,16.5,7
7.0,12.25,6.25,-49.0,41.0,47.5,26.0,11.25,7
9.0,22.0,-8.5,-34.5,29.0,39.0,28.0,14.25,7
8.25,23.25,-0.25,-28.0,22.75,36.0,23.0,19.5,7
-18.0,19.75,25.75,-29.25,6.5,30.5,24.75,26.5,7
-61.0,7.0,35.25,-31.0,-11.75,29.25,30.75,17.5,7
-39.25,11.75,36.0,-15.5,6.75,36.75,32.75,18.5,7
-30.75,12.0,29.5,-14.75,-0.25,35.0,30.0,8.0,7
-46.25,22.0,23.5,-17.0,-2.75,43.0,22.75,17.75,7
-50.5,17.5,9.5,-12.25,-10.25,22.75,21.75,43.5,7
-56.5,5.0,1.25,-16.25,-14.5,40.5,18.0,59.75,7
-44.5,18.25,7.5,-10.5,-9.0,38.75,13.25,59.75,7
-33.25,14.25,-11.75,-10.5,-12.5,33.0,17.0,50.25,7
-35.75,17.25,-21.0,-0.75,-3.5,30.5,13.25,35.5,7
-32.5,16.5,-21.25,-4.5,10.5,20.25,13.75,3.75,7
-15.0,16.5,-20.5,1.25,16.75,35.25,14.0,-23.75,7
-8.5,15.5,-22.25,0.25,27.75,39.75,16.25,-88.75,7
11.5,26.25,-27.0,-9.75,52.25,62.75,27.25,-105.25,7
26.25,34.5,-34.75,-3.0,53.0,46.0,31.75,-30.0,7
38.5,20.25,-43.75,-18.25,62.0,39.25,19.75,4.5,7
62.25,24.5,-57.0,-18.75,87.25,46.5,8.5,4.25,7
90.25,25.25,-81.0,-15.0,84.25,40.25,19.75,21.5,7
72.75,26.25,-62.0,-15.25,73.5,34.75,17.75,63.0,7
49.75,27.25,-56.5,-3.25,75.0,32.25,8.75,93.0,7
53.0,31.5,-55.25,11.75,59.5,36.25,22.0,48.75,7
19.5,19.5,-41.75,1.5,57.5,31.5,22.0,24.5,7
17.0,14.0,-51.0,-5.5,56.5,35.75,22.25,17.25,7
4.25,24.5,-42.25,2.5,50.25,17.25,21.0,8.25,7
-8.5,-0.5,-24.75,-3.25,45.25,21.0,25.75,7.25,7
-23.0,1.25,-15.25,0.5,36.0,18.75,26.5,-5.75,7
-39.25,17.5,-18.5,1.0,31.75,26.75,14.75,9.0,7
-37.5,0.25,-12.5,3.5,27.75,23.75,32.5,22.0,7
-35.25,-6.5,2.75,-2.5,28.5,11.25,28.5,24.25,7
-30.5,-0.25,-2.0,-1.25,18.25,21.75,21.0,44.5,7
-34.0,-12.0,-2.0,1.25,34.75,16.0,35.5,45.75,7
-25.25,-10.75,-12.5,-2.25,34.25,32.5,24.0,58.25,7
-25.5,-4.75,-0.25,0.0,20.0,28.25,23.0,31.75,7
-50.0,-15.25,27.0,-2.25,12.25,17.0,33.0,11.75,7
-46.25,-8.5,11.75,4.0,30.0,16.25,30.75,30.5,7
-21.5,-7.75,-1.5,-3.75,32.75,15.5,34.75,4.25,7
-24.5,-11.5,-8.5,-1.5,34.75,1.75,29.25,23.5,7
-6.5,7.25,-13.75,4.5,52.5,7.0,33.75,31.75,7
0.0,-3.5,-12.75,-14.0,43.5,15.25,33.25,27.5,7
7.5,-2.5,-14.25,-11.75,39.5,14.0,25.0,27.0,7
9.25,7.5,-24.75,-8.25,23.5,14.75,23.5,16.75,7
-2.25,-3.5,-13.5,-0.25,28.75,6.0,28.5,20.75,7
2.25,7.0,3.25,-8.75,22.5,21.25,37.5,-11.25,7
-13.0,2.0,-2.75,-9.5,16.0,28.0,27.5,-18.75,7
-18.75,16.5,7.25,-13.5,23.5,29.25,35.5,26.5,7
-28.0,17.25,20.25,-22.75,16.75,29.25,51.75,62.5,7
-27.75,10.25,24.0,-2.75,27.5,41.25,47.25,57.75,7
-33.5,13.25,17.75,-15.0,7.75,39.5,54.0,59.25,7
-32.25,4.5,13.75,-4.0,1.0,14.25,38.25,34.0,7
-5.5,17.5,3.25,-9.5,12.0,4.25,18.0,12.75,7
17.75,2.75,-11.25,-18.0,20.0,6.25,12.0,7.75,7
14.5,9.75,-18.75,-20.5,18.25,20.25,0.5,-19.5,7
7.0,11.75,-17.75,-24.75,11.75,8.75,7.75,-47.25,7
10.75,3.0,-19.25,-28.75,17.5,16.0,6.5,-62.5,7
9.0,11.25,-15.0,-46.0,8.25,18.25,0.75,3.5,7
22.75,8.0,-20.25,-41.25,24.75,14.0,6.0,93.0,7
24.0,10.25,-15.0,-39.25,31.75,34.75,10.0,124.0,7
26.5,-7.0,-18.0,-28.75,29.0,35.0,6.75,100.75,7
34.5,-0.5,-23.0,-31.5,46.5,23.75,5.25,61.5,7
31.25,4.0,-11.75,-24.75,38.0,24.0,4.25,8.0,7
18.5,-0.75,-16.0,-6.75,25.25,10.5,-3.25,-13.25,7
6.25,6.5,-4.0,-12.5,30.0,5.5,9.5,-33.5,7
-6.0,13.75,14.25,-14.25,21.25,20.5,13.25,-166.75,7
-10.75,21.0,-1.75,-18.0,19.25,16.5,16.5,-248.0,7
-25.0,10.25,-3.5,-17.75,10.75,16.75,16.75,-115.5,7
-66.75,12.0,17.0,-24.0,-10.25,17.25,20.75,25.25,7
-97.75,5.0,34.75,-13.75,-23.5,29.0,28.75,19.25,7
-82.25,-2.5,27.25,-14.75,-20.0,26.25,15.25,46.5,7
-77.0,-2.5,12.0,-28.5,-11.75,22.75,19.0,59.5,7
-84.0,-1.5,6.0,-19.25,-12.5,18.75,31.25,45.25,7
-52.0,-8.25,0.5,-17.75,4.75,5.75,26.75,48.75,7
-40.25,-8.5,10.5,-16.5,14.25,10.0,23.0,33.5,7
-30.0,-17.0,-2.0,-25.75,26.0,17.0,22.0,51.5,7
-15.0,-32.0,-13.5,-24.5,33.5,21.75,18.5,44.5,7
-1.75,0.5,-8.75,-31.5,35.25,17.5,21.5,26.75,7
15.5,11.5,-18.75,-41.75,31.0,17.75,23.0,24.25,7
23.25,2.5,-8.25,-15.0,39.25,22.75,41.0,28.25,7
41.0,8.25,-8.5,-13.5,62.25,44.0,42.25,49.0,7
50.75,13.5,-14.25,-11.75,70.5,37.0,28.25,19.75,7
40.75,13.75,-4.75,-9.25,56.0,33.5,32.25,33.0,7
28.5,3.0,-10.5,-13.25,51.25,35.0,35.0,59.0,7
27.5,3.0,-11.75,-11.0,50.5,16.0,40.0,38.5,7
49.5,4.5,-32.25,-7.75,48.5,33.25,31.75,34.0,7
48.25,12.25,-23.75,-4.25,40.75,21.5,26.25,18.75,7
11.75,11.25,-10.25,1.0,29.75,15.75,24.25,22.0,7
1.75,15.0,-15.25,-2.0,32.5,19.75,21.5,35.5,7
-1.25,4.25,-3.75,-7.75,25.25,18.5,21.75,27.25,7
-1.0,-5.5,1.5,-10.25,19.25,28.75,18.25,58.5,7
-9.25,7.0,7.5,-5.0,11.75,25.25,28.75,82.75,7
-15.5,11.0,3.75,-5.25,19.25,25.0,31.0,86.25,7
-0.75,8.0,-5.0,-4.5,28.25,17.5,28.5,62.25,7
-12.0,-1.75,-10.5,-10.75,28.5,28.5,21.0,15.25,7
-10.5,-7.0,-9.0,-18.75,22.5,22.0,18.5,8.5,7
1.5,1.5,-16.5,-23.0,36.0,18.25,20.25,-4.75,7
8.75,2.75,-24.5,-46.5,43.0,29.25,7.0,-66.25,7
16.0,1.0,-20.75,-24.0,42.25,27.25,16.75,-110.25,7
18.75,-1.5,-15.5,-23.5,41.0,23.75,9.75,-34.25,7
14.5,-2.0,-4.5,-33.5,30.5,17.25,6.5,28.75,7
-1.75,4.0,3.0,-18.0,16.0,24.75,12.0,20.0,7
-22.75,9.5,10.25,-14.0,9.25,16.75,12.25,42.25,7
-20.5,9.25,5.0,-5.75,21.25,17.25,5.0,30.25,7
-23.75,-4.0,8.25,-15.75,6.25,26.0,5.5,30.75,7
-25.5,-10.5,6.5,-1.0,14.5,31.25,18.0,45.25,7
-19.0,-15.5,10.0,7.25,10.0,12.5,19.75,21.75,7
-39.0,-5.0,16.0,2.75,1.25,21.75,22.5,32.25,7
-40.25,2.5,12.5,-2.75,-2.25,39.75,24.25,31.25,7
-45.0,4.25,14.25,-5.75,-13.75,22.5,20.5,35.75,7
-35.5,6.0,12.5,-9.75,-16.75,24.5,24.25,52.0,7
-37.5,1.75,20.25,-18.0,4.0,25.0,42.0,49.5,7
-36.25,-0.25,19.0,-9.5,16.0,40.25,44.25,58.25,7
-25.0,6.0,13.75,-16.75,2.0,32.25,32.75,44.25,7
-25.75,9.75,-1.5,-24.0,20.75,22.75,24.0,22.5,7
-11.75,6.0,-9.5,-24.25,23.75,32.25,28.75,19.75,7
-7.5,16.25,-16.75,-25.25,34.0,26.0,20.5,23.75,7
30.0,7.25,-31.0,-28.0,44.75,23.75,9.0,6.75,7
75.75,8.75,-42.5,-28.75,57.75,24.25,23.5,11.5,7
51.25,12.5,-39.5,-24.25,50.75,34.0,13.5,36.25,7
27.75,17.5,-35.0,-31.5,35.25,39.0,4.5,31.25,7
32.75,20.5,-42.75,-28.75,43.5,25.75,8.75,20.25,7
23.75,9.5,-42.0,-13.0,29.5,26.75,17.0,8.75,7
7.0,10.25,-27.25,-8.75,25.75,23.25,25.5,23.5,7
4.5,10.25,-13.0,-4.25,28.0,16.25,18.0,23.0,7
-2.75,15.25,-14.0,-7.75,31.5,24.75,28.0,8.5,7
-32.75,16.75,-8.75,0.75,1.25,14.25,25.5,14.25,7
-42.0,23.0,-16.5,-6.75,-2.5,17.5,19.0,31.5,7
-56.75,24.5,-3.0,-28.0,6.25,10.0,29.0,63.0,7
-65.75,13.5,-2.5,-22.25,4.5,-3.25,17.75,50.0,7
-66.75,12.0,5.25,-13.0,0.75,1.0,22.0,24.75,7
-68.75,29.0,24.5,-15.25,-10.75,-13.5,37.25,17.25,7
-58.5,35.5,6.25,-8.75,6.25,-13.75,36.25,-19.0,7
-73.25,22.25,19.75,-9.0,-14.75,2.5,32.5,-37.0,7
-96.25,33.0,38.5,-17.0,-16.0,-7.5,27.5,-71.75,7
-90.75,34.5,28.25,-18.25,-0.25,4.25,37.0,-96.0,7
-51.5,43.0,17.0,-26.75,10.5,10.0,35.25,-44.5,7
-38.75,27.0,11.0,-26.0,13.5,1.25,41.0,-12.25,7
-24.75,25.25,-4.0,-35.0,19.75,-2.75,48.25,-11.75,7
-2.0,32.75,-9.25,-26.25,35.5,3.0,32.25,16.25,7
5.25,16.75,5.75,-22.75,49.25,18.25,38.5,24.25,7
15.0,20.25,-10.75,-1.5,50.75,22.0,40.5,26.5,7
12.0,18.5,-10.0,2.25,34.0,32.0,37.75,51.75,7
3.5,19.5,0.75,-1.5,43.75,39.5,46.0,55.0,7
11.25,25.25,-14.75,20.0,60.75,50.75,45.25,50.25,7
19.0,32.75,2.25,4.75,48.75,41.5,37.25,51.75,7
1.25,9.0,-2.75,-2.75,36.25,30.75,35.0,71.75,7
-3.0,10.5,1.5,-8.25,44.25,43.25,37.25,76.75,7
-6.75,12.5,5.75,-13.5,38.5,33.75,37.0,57.25,7
-9.25,-11.25,-5.25,-14.75,39.0,35.75,39.5,42.25,7
11.75,-8.75,-10.75,-14.0,66.5,46.75,34.75,8.5,7
39.25,-8.5,-18.0,-2.25,57.0,43.75,34.0,-19.25,7
31.25,-12.25,-9.75,-7.25,40.25,31.25,32.25,-24.25,7
19.0,-20.5,-8.25,-9.0,51.75,34.0,16.5,-38.75,7
24.0,-20.0,-14.75,-21.0,48.0,48.0,27.75,-49.75,7
16.5,-20.5,-17.0,-15.0,48.0,46.25,23.25,-9.5,7
33.75,-14.0,-22.25,-16.75,50.25,26.25,22.5,24.5,7
27.25,5.0,-24.0,-29.25,50.0,-0.25,37.0,24.0,7
28.0,7.75,-10.0,-26.25,41.25,4.25,25.75,37.0,7
40.75,1.0,-18.25,-35.0,32.0,18.0,22.25,26.0,7
35.75,-9.0,-18.75,-30.75,37.0,22.75,22.25,28.0,7
40.75,-7.5,-20.5,-39.75,48.75,46.25,15.5,46.0,7
33.75,-10.5,-32.25,-37.25,32.25,33.5,16.0,40.75,7
30.5,-24.25,-29.75,-15.25,27.5,34.75,11.75,3.5,7
12.5,-9.5,-18.0,-16.0,34.0,53.75,24.75,-15.75,7
1.5,-18.0,-10.0,-6.75,17.0,33.5,13.25,8.5,7
-27.5,-26.0,0.75,-4.5,2.75,43.75,7.25,-3.0,7
-76.5,-20.75,28.5,0.0,-7.75,32.25,33.0,-6.25,7
-66.75,-19.75,11.25,-5.0,-7.75,24.25,12.75,-1.75,7
-62.0,-15.0,10.0,-6.75,-12.5,33.0,21.25,-11.25,7
-69.0,-15.25,21.0,-16.25,-12.25,17.0,26.0,-12.0,7
-59.25,-9.25,5.75,-23.5,-18.25,18.75,13.25,10.5,7
-51.0,3.0,-2.5,-15.25,-6.25,19.0,13.25,22.5,7
-32.5,-6.0,-6.5,-24.25,6.75,31.25,7.0,17.0,7
-20.0,-8.75,-10.5,-3.0,12.25,37.25,18.75,12.5,7
-12.5,-3.25,-7.5,-4.75,29.25,35.5,16.75,21.5,7
5.75,-2.5,-21.75,-2.0,28.0,37.75,12.5,74.75,7
19.25,-1.0,-29.25,-1.25,46.75,41.5,34.75,89.25,7
23.0,9.5,-30.5,-4.0,45.75,24.75,27.5,102.75,7
46.25,19.5,-44.75,-6.0,47.0,-2.5,23.75,110.0,7
42.5,5.75,-34.0,-17.0,59.0,15.25,25.0,73.25,7
45.0,3.75,-39.5,2.75,49.25,27.0,8.0,33.5,7
54.75,11.25,-49.0,4.0,60.75,31.0,17.0,-8.5,7
73.5,3.5,-58.0,-2.5,61.75,15.5,6.0,-88.0,7
72.5,7.25,-36.75,-4.0,58.0,11.5,9.25,-175.0,7
28.0,3.0,-30.0,-9.75,40.25,17.25,27.5,-163.75,7
33.0,-3.5,-31.25,-24.75,19.5,19.5,21.75,-113.5,7
3.5,1.0,-5.25,-21.0,19.25,18.25,24.75,-6.5,7
-15.5,-3.75,-5.0,-17.5,27.0,14.0,21.75,51.25,7
-18.0,-5.0,3.25,-19.5,19.25,11.75,24.0,13.0,7
-39.0,-4.5,-9.0,-6.25,10.5,7.75,17.25,45.75,7
-46.0,-23.75,11.0,-8.25,12.25,18.0,14.5,34.0,7
-40.5,-24.0,14.5,-13.0,6.75,10.75,28.25,46.0,7
-27.25,-7.75,5.0,-11.75,16.0,20.5,12.5,49.25,7
-20.5,-16.75,21.5,-22.5,8.0,17.75,11.5,38.0,7
-8.25,-5.75,21.75,-16.5,14.5,4.5,21.25,47.5,7
-8.0,-2.0,22.5,0.25,23.75,24.25,15.25,39.25,7
-11.75,-18.25,14.75,-10.0,14.25,10.25,30.25,55.5,7
-8.25,-28.75,14.0,-6.25,5.0,4.5,19.25,32.25,7
-22.75,-27.25,16.0,-6.25,1.25,15.0,15.5,41.5,7
-55.25,-31.25,30.75,-11.5,8.0,9.75,20.5,41.75,7
-28.25,-38.5,27.5,-11.5,0.75,7.0,15.25,34.25,7
-33.0,-32.0,14.25,-17.0,2.0,3.25,14.5,20.25,7
-32.25,-26.5,13.75,-21.75,17.25,4.25,21.5,10.5,7
-27.25,-14.75,18.75,-18.5,10.75,16.75,28.25,21.75,7
-44.0,-25.0,20.5,-34.0,-2.25,14.0,13.0,20.25,7
-44.5,-17.75,3.5,-39.25,-12.5,19.5,21.25,19.0,7
-60.25,-26.75,20.75,-13.0,-8.5,29.0,18.25,20.0,7
-56.5,-19.75,16.75,-11.5,-4.75,20.5,22.5,30.25,7
-60.5,-9.25,17.5,0.0,-1.5,17.0,26.0,17.0,7
-63.75,-10.0,26.0,-9.25,-15.75,24.0,23.75,8.0,7
-61.25,2.75,15.5,-8.5,-4.25,29.0,29.75,-11.0,7
-38.75,-2.5,10.75,-0.25,0.0,28.5,20.5,9.25,7
-31.25,2.0,-8.75,-19.75,-1.0,40.25,24.75,30.25,7
-16.0,9.5,-19.0,-16.5,11.25,32.5,17.0,13.75,7
16.25,2.0,-35.5,-23.5,7.5,17.25,19.0,24.75,7
49.75,2.5,-51.25,-20.5,22.75,13.75,31.0,41.5,7
52.75,19.5,-32.5,-11.0,16.75,19.75,25.75,42.25,7
42.5,16.5,-34.0,-22.75,15.25,22.25,37.75,41.25,7
42.5,11.0,-48.0,-21.0,21.25,26.0,42.5,23.75,7
26.75,6.75,-46.5,-15.25,12.25,31.5,39.25,4.25,7
30.75,10.75,-26.5,-13.25,13.75,33.5,35.0,15.75,7
12.25,26.25,-21.0,-10.5,15.0,29.0,14.0,17.0,7
14.75,34.25,-15.75,-11.0,14.0,32.0,18.5,22.5,7
-3.25,34.75,0.0,-17.75,15.25,41.5,29.75,17.5,7
-4.25,15.75,1.75,-22.5,2.5,42.5,27.5,16.75,7
-19.0,9.5,8.0,-19.25,-0.5,54.5,40.0,33.75,7
-46.75,14.5,6.0,-18.5,-0.75,43.5,32.25,24.0,7
-47.25,13.75,19.0,-16.5,-5.25,43.25,26.75,-10.0,7
-60.0,6.0,16.75,-19.0,-9.5,53.75,27.0,-10.5,7
-59.25,13.0,25.5,-12.0,-14.25,46.5,18.5,1.75,7
-82.5,6.5,40.75,-7.0,-3.5,32.5,33.75,-2.25,7
-95.0,3.25,40.25,-7.75,-8.25,26.75,31.75,14.75,7
-86.5,8.5,41.5,-1.5,4.0,30.5,26.5,30.0,7
-54.0,6.0,25.75,-10.5,20.5,38.0,13.5,41.75,7
-49.0,20.5,16.0,-5.5,41.5,43.75,11.25,37.0,7
-33.0,18.0,1.5,-17.5,62.25,40.0,17.75,29.5,7
-10.0,11.0,-5.5,-13.25,57.25,41.0,12.5,22.25,7
3.0,13.25,-6.75,1.25,68.0,37.5,20.5,24.0,7
18.25,21.5,-21.0,-10.0,78.25,48.5,23.0,28.0,7
20.75,13.5,-25.75,-16.75,87.75,68.25,34.25,32.25,7
31.75,26.5,-31.5,-9.5,71.0,47.75,21.25,23.75,7
27.0,8.25,-30.0,-11.5,60.0,38.0,19.5,11.75,7
10.5,-14.5,-21.25,-13.75,60.75,30.25,26.0,13.0,7
-0.5,7.75,-21.75,-21.0,55.25,14.75,16.75,11.5,7
8.25,2.75,-20.25,-24.5,35.5,2.25,26.5,16.25,7
-6.0,3.0,-11.25,-30.25,37.5,6.5,14.0,-3.0,7
-8.5,-1.0,-27.5,-29.75,53.5,20.75,13.5,3.0,7
18.75,-5.5,-27.25,-25.75,58.5,7.75,14.0,5.5,7
23.0,7.5,-22.25,-22.0,56.0,4.25,11.0,3.75,7
-7.0,9.0,-19.0,-17.75,40.75,14.0,18.0,6.0,7
-11.5,6.25,-14.75,-26.0,49.75,33.5,32.0,-2.0,7
-6.25,12.0,-20.75,-22.75,38.75,24.25,32.5,18.5,7
-7.5,11.0,-21.25,-25.0,44.0,11.5,36.0,21.75,7
-3.25,14.25,-25.25,-34.25,55.0,10.25,24.0,3.5,7
0.0,24.5,-23.0,-27.5,47.0,23.75,18.0,25.5,7
7.5,26.5,-29.5,-20.0,48.0,32.75,19.25,28.0,7
18.25,22.5,-23.5,-12.25,47.25,22.0,17.0,17.25,7
17.25,11.75,-12.75,-6.75,34.5,25.75,30.5,24.0,7
29.5,8.0,-7.75,-9.0,36.0,17.0,17.0,8.0,7
31.25,15.0,-6.0,-4.0,46.75,33.75,13.5,8.25,7
14.25,17.5,-5.75,-1.5,48.25,35.5,20.75,14.25,7
20.25,8.75,1.0,4.25,47.25,19.25,21.5,13.5,7
0.0,5.5,-1.75,4.75,35.75,25.0,32.75,24.5,7
-35.5,3.75,13.5,-8.75,13.5,14.5,28.25,21.5,7
-78.25,10.0,26.0,-11.75,-2.5,10.25,22.0,29.0,7
-69.75,0.25,22.25,-23.0,7.25,14.25,36.0,24.25,7
-68.75,-6.0,9.75,-29.75,-12.0,5.5,35.0,23.75,7
-84.25,1.25,20.0,-33.25,-10.0,-3.25,33.5,38.75,7
-63.75,7.75,32.0,-35.5,-18.25,15.25,33.5,25.75,7
-67.5,16.25,19.5,-10.5,-35.75,20.75,30.0,42.25,7
-59.25,1.0,19.5,-12.0,-23.75,13.25,33.5,64.0,7
-56.5,10.25,26.25,0.5,-13.25,20.25,33.0,55.75,7
-39.0,15.0,16.5,3.75,9.75,20.0,35.75,86.25,7
-25.25,7.75,11.0,-8.5,6.25,18.25,37.75,64.25,7
-15.5,11.75,20.75,-5.5,14.0,22.75,54.5,31.0,7
-8.0,5.0,-3.75,-2.5,19.75,30.25,34.75,36.5,7
2.75,-2.0,-21.25,-21.5,16.5,24.75,17.75,4.5,7
9.0,5.5,-12.0,-33.0,20.0,24.25,22.25,-26.25,7
20.25,7.0,-24.25,-13.5,14.75,30.25,10.0,-42.25,7
63.25,2.75,-31.5,-29.75,37.25,31.0,9.5,-52.0,7
79.5,5.0,-42.25,-22.25,54.5,51.0,10.25,-51.75,7
55.75,-1.5,-28.75,-25.0,40.75,33.5,22.75,-14.25,7
28.5,8.5,-14.5,-27.75,27.75,29.0,14.75,-40.75,7
20.5,12.0,-15.25,-7.75,10.0,25.5,24.0,-125.25,7
-6.25,17.25,-6.25,-19.75,-5.5,7.75,21.75,-114.25,7
-22.0,-3.5,1.5,-9.0,-9.25,23.0,26.25,-14.5,7
-30.25,8.5,23.5,-6.75,-17.0,13.5,29.25,20.5,7
-35.25,12.0,1.5,-12.25,-14.5,15.25,23.25,28.75,7
-43.75,-11.25,-2.75,-14.5,-14.25,29.75,29.0,49.5,7
-62.75,8.0,18.0,-9.25,-20.5,23.5,22.5,28.5,7
-61.5,-2.0,4.0,-3.75,-1.75,24.75,16.0,43.0,7
-62.25,-9.5,17.5,7.0,10.5,34.0,7.25,41.25,7
-41.5,-3.0,6.5,-0.5,0.75,40.0,24.5,42.0,7
-25.0,1.5,-7.5,-18.0,1.75,34.0,17.25,38.25,7
-6.25,0.25,-4.25,-6.75,1.0,34.75,22.0,51.75,7
-4.5,6.75,-12.25,-7.0,-5.0,22.5,22.5,55.75,7
-38.75,15.25,-6.0,-9.0,-17.5,12.0,18.75,33.75,7
-33.5,-0.75,-15.5,-3.5,-1.5,9.25,37.25,39.5,7
-1.0,-4.75,-28.5,-9.25,9.75,18.0,23.5,22.0,7
2.0,-14.25,-28.5,-6.0,6.75,20.5,24.0,12.0,7
8.5,-14.25,-31.5,-10.25,18.0,25.5,24.75,6.0,7
13.25,4.75,-25.25,-20.75,8.25,30.5,28.0,19.0,7
18.0,16.5,-21.5,-5.75,24.75,44.5,31.75,30.0,7
18.0,30.5,-8.0,-7.75,35.25,36.75,35.5,53.25,7
5.75,33.5,-10.25,-10.25,29.0,25.75,36.5,31.25,7
3.75,14.75,-13.25,-8.5,23.0,32.25,18.25,21.0,7
-5.5,6.5,5.25,-5.25,17.75,25.25,19.5,31.5,7
-1.75,13.75,-4.75,-4.5,12.75,26.0,18.5,40.0,7
12.0,-5.5,-0.5,-16.5,19.0,29.0,20.75,79.0,7
9.0,-7.75,-9.25,-2.5,22.5,21.25,27.75,58.25,7
-4.25,2.0,-1.0,-2.75,20.0,16.25,23.0,47.5,7
-3.25,4.0,-11.25,-4.75,40.25,24.25,18.5,36.0,7
28.5,13.25,-40.5,-0.75,66.25,28.5,24.0,4.75,7
74.25,26.5,-35.75,-6.0,65.75,18.0,25.5,3.0,7
47.0,29.75,-37.0,-19.75,61.75,26.25,21.5,-23.75,7
39.5,12.25,-26.25,-35.25,52.75,28.25,25.0,-81.75,7
44.25,13.5,-38.0,-39.25,43.75,15.25,10.25,-60.25,7
35.75,-1.75,-42.0,-35.75,47.25,25.75,2.25,32.75,7
47.25,-3.0,-33.25,-25.5,49.0,27.0,17.5,6.25,7
35.5,15.25,-20.75,-14.0,63.75,17.25,13.25,-3.0,7
43.25,13.0,-17.25,-16.75,65.0,2.75,25.5,-17.0,7
32.5,11.5,-15.5,-24.5,69.75,7.25,12.5,-105.0,7
24.75,8.75,-4.75,-23.0,57.75,20.0,6.5,-97.0,7
5.25,12.0,-4.0,-10.25,47.75,16.5,10.25,11.0,7
-14.0,21.0,4.0,-10.0,43.0,34.25,9.75,45.75,7
-29.5,25.25,7.0,-19.75,33.5,26.25,29.0,23.5,7
-38.5,17.25,9.25,-1.75,50.75,16.75,13.5,56.5,7
-43.25,25.5,6.25,-12.5,31.0,13.25,16.75,42.25,7
-82.0,26.0,28.75,-16.5,6.0,1.75,31.25,56.75,7
-102.5,27.0,44.75,-7.75,10.25,-10.25,32.75,50.5,7
-93.0,33.5,26.25,-28.25,32.0,-16.5,36.25,50.75,7
-76.0,33.25,15.75,-32.5,30.25,14.25,33.5,43.25,7
-65.0,29.25,4.75,-31.0,20.75,-2.0,33.5,24.25,7
-43.75,19.0,9.5,-28.75,26.75,-15.75,41.5,37.0,7
-33.75,23.75,5.5,-25.75,34.75,6.0,43.5,46.0,7
-6.0,19.25,1.5,-5.0,39.5,3.25,36.25,71.75,7
1.25,23.5,1.0,3.0,41.0,8.5,40.25,42.0,7
-4.25,15.25,8.25,1.75,52.25,23.75,32.5,41.5,7
5.0,12.25,0.0,5.25,45.25,25.25,20.0,40.0,7
1.0,15.75,-13.75,-21.75,48.75,21.0,15.25,36.75,7
6.5,2.75,-15.75,-12.25,27.75,25.25,23.25,27.25,7
2.25,0.25,-8.25,-2.0,28.0,23.5,17.75,29.25,7
-11.0,-0.5,-11.25,-25.5,26.75,19.75,11.5,34.25,7
-35.0,-5.5,-10.5,-16.5,1.75,12.5,13.75,10.75,7
-28.75,-16.25,-8.5,-13.75,19.75,2.25,6.75,21.25,7
9.25,-8.0,-24.5,-18.75,18.5,19.75,7.5,10.75,7
-7.25,-7.5,-2.75,-16.5,7.75,24.0,15.75,23.75,7
-27.75,3.5,-1.0,-15.5,-4.75,13.25,20.5,6.5,7
-27.75,-1.0,-8.5,-22.5,-9.25,20.5,18.0,6.25,7
-33.5,-17.0,11.75,-21.5,13.0,27.25,31.25,32.75,7
-23.75,-9.25,6.25,-20.75,-0.75,21.0,39.25,20.0,7
-26.25,-22.0,5.25,-15.25,5.0,24.75,32.75,5.5,7
-19.25,-13.5,4.5,0.5,6.5,20.0,17.25,-1.25,7
-9.5,-2.5,7.75,-8.0,1.75,4.0,17.25,14.5,7
-10.75,-20.25,14.25,-11.5,18.25,26.75,22.5,8.25,7
-3.5,-16.5,-0.75,-0.75,8.75,32.75,28.0,12.25,7
-0.25,-9.5,-9.0,-8.5,16.0,24.5,34.75,5.5,7
6.75,-33.5,-16.75,-13.0,17.0,45.5,32.0,20.5,7
29.25,-41.25,-24.75,-23.25,24.75,34.75,24.0,19.25,7
18.5,-25.75,-24.5,-27.0,11.5,28.0,29.75,19.0,7
3.5,-1.75,-12.5,-20.75,0.75,36.25,37.5,35.0,7
-24.5,-9.5,10.25,-24.75,-6.75,24.75,35.25,12.75,7
-56.0,-11.25,8.5,-12.5,-22.25,22.75,35.0,20.75,7
-31.0,2.25,-2.75,-29.0,-8.0,26.75,44.75,22.0,7
-45.0,2.25,1.5,-25.0,-7.25,23.0,33.0,11.0,7
-50.75,8.25,15.0,-7.75,2.75,33.5,20.75,13.25,7
-30.5,-1.5,19.75,-7.0,-19.75,36.5,37.0,27.5,7
-38.5,12.0,19.25,18.0,-11.25,36.25,39.5,20.5,7
-46.75,12.25,14.75,3.0,10.0,44.5,45.75,7.25,7
-51.0,-9.25,14.75,-6.75,-6.75,31.75,40.5,1.75,7
-32.0,-4.5,10.25,9.25,2.0,28.75,35.75,-2.0,7
-26.5,-7.0,-1.0,-5.0,13.25,28.0,31.5,7.0,7
-24.0,-7.5,-15.25,-7.5,26.25,28.0,24.75,10.0,7
-9.25,-12.5,-15.75,-7.0,30.25,26.5,31.5,15.0,7
10.75,-15.5,-24.5,-0.5,46.75,15.75,27.5,14.25,7
32.0,-9.75,-24.75,-2.75,40.75,20.0,28.5,34.5,7
27.75,-18.0,-22.5,-20.5,55.0,21.25,12.25,57.75,7
51.0,-2.75,-37.75,-20.0,71.5,12.0,5.75,46.75,7
89.0,-5.75,-49.25,-26.0,71.25,24.25,10.25,26.0,7
65.25,-18.0,-49.25,-34.25,64.5,26.5,0.5,1.25,7
48.0,-15.0,-52.25,-50.75,56.75,24.5,10.0,-24.75,7
50.75,-25.0,-57.5,-40.25,63.25,32.5,8.25,-53.5,7
29.5,-16.25,-36.5,-32.0,35.25,25.5,14.75,-59.25,7
16.5,-4.0,-15.0,-43.5,35.75,27.25,21.25,-56.5,7
5.0,-9.5,3.0,-23.75,32.5,27.75,12.25,-4.0,7
0.75,-13.0,3.5,-13.0,26.75,15.5,11.75,32.0,7
-13.25,-4.0,2.0,6.5,17.25,18.25,14.75,11.0,7
-21.75,-3.5,-5.75,4.75,15.25,21.25,23.0,20.75,7
-15.5,4.75,-0.75,4.25,18.5,29.0,34.0,13.25,7
-20.75,17.75,4.0,1.75,16.75,28.5,35.75,19.75,7
-31.75,5.75,-5.0,-13.25,26.0,33.75,23.75,29.5,7
-43.25,3.25,7.75,0.25,27.25,30.25,17.75,33.75,7
-29.5,3.5,0.5,-11.75,21.0,34.0,19.25,33.5,7
-36.75,14.25,10.5,-10.75,4.25,40.75,29.0,32.75,7
-73.25,21.75,29.0,-12.25,0.75,29.0,39.0,44.0,7
-52.5,22.0,15.0,-11.75,20.25,27.5,26.5,32.0,7
-14.0,26.25,0.25,-8.5,35.5,32.5,22.5,28.0,7
-9.5,13.0,-4.5,-13.0,34.0,36.5,17.25,43.75,7
7.75,19.75,-3.5,-19.0,50.0,45.5,30.75,60.25,7
14.75,30.5,-3.75,-13.75,56.75,46.75,32.0,66.5,7
9.75,33.0,-5.75,-6.25,46.75,29.5,32.75,52.75,7
6.5,34.25,-1.25,-18.5,26.0,35.0,41.25,32.75,7
-8.5,15.25,2.75,-17.25,17.0,34.0,26.25,5.0,7
-13.25,16.25,4.0,-10.0,19.0,34.5,24.25,-22.5,7
-12.75,11.0,0.25,-17.25,13.75,43.0,14.5,-11.5,7
-28.75,-2.5,3.75,-9.25,11.5,37.0,8.5,27.0,7
-34.75,13.0,11.75,-2.75,1.5,36.25,16.5,18.75,7
-29.75,26.5,20.75,-7.25,-5.75,32.25,23.25,24.0,7
-41.5,4.75,10.75,-6.75,-20.75,33.25,26.25,26.5,7
-37.25,2.0,5.0,-31.25,1.75,17.5,23.0,-6.25,7
1.0,10.25,-3.5,-29.25,28.25,11.75,16.5,14.5,7
25.75,-1.75,-9.75,-19.75,14.25,34.0,19.25,11.0,7
7.5,20.5,-7.75,-34.25,13.0,51.5,7.75,16.25,7
3.5,17.75,-27.75,-16.75,13.75,39.0,17.0,37.5,7
7.25,-5.25,-12.0,-8.5,14.75,26.5,23.5,46.5,7
16.5,-13.25,-21.25,2.25,30.75,36.0,5.0,47.25,7
28.25,-18.25,-37.5,-11.25,23.75,32.75,6.25,27.25,7
12.75,-6.5,-18.25,-15.5,15.25,12.75,0.25,23.25,7
19.75,-7.75,-34.75,-6.25,20.25,1.5,11.0,26.5,7
22.5,-13.75,-36.0,-12.75,20.25,8.75,10.5,45.0,7
19.75,-5.0,-26.0,-4.0,21.5,7.0,1.75,39.0,7
6.0,-10.75,-21.5,-11.0,8.5,17.75,15.0,13.5,7
-1.5,-10.25,-17.25,-10.5,5.75,13.5,9.5,10.0,7
2.0,-1.25,-8.0,-20.75,-5.25,6.5,5.0,-9.5,7
-12.25,-11.25,1.25,-36.0,-18.75,15.75,14.5,-23.5,7
-23.75,-7.75,0.25,-42.25,-12.5,16.75,27.25,-61.0,7
-68.75,-8.75,29.0,-31.5,-38.0,20.5,31.0,-93.5,7
-99.0,-8.25,42.5,-16.75,-44.5,16.75,33.0,-21.25,7
-82.5,-8.25,30.25,-19.75,-36.75,17.75,23.25,16.25,7
-72.5,-10.0,26.25,-13.5,-35.0,8.5,19.75,-10.75,7
-55.0,1.25,28.25,-14.0,-8.0,11.75,25.75,25.5,7
-38.75,8.75,23.5,-13.5,5.0,20.25,25.5,29.25,7
-20.75,2.0,14.5,-3.75,17.25,16.75,38.0,34.0,7
-3.0,8.75,0.25,-4.0,11.5,20.25,29.5,30.5,7
0.25,7.0,-5.75,-16.0,34.5,29.25,21.0,26.5,7
14.25,12.25,-14.75,-8.25,53.0,37.0,34.0,54.75,7
14.0,17.5,-25.0,-4.25,43.75,37.5,27.75,77.25,7
13.25,12.5,-24.75,-12.5,69.25,32.5,21.25,71.0,7
27.0,16.75,-38.5,-14.0,76.5,25.5,16.5,45.5,7
33.75,5.25,-29.75,-14.0,68.25,18.75,13.75,50.0,7
32.5,12.5,-20.5,-2.5,70.75,25.75,19.75,5.5,7
33.25,9.5,-29.75,-13.0,88.75,22.25,15.0,-8.0,7
49.5,-10.0,-32.25,-2.25,95.75,20.25,17.75,-56.0,7
65.5,-12.0,-42.5,0.0,100.25,18.25,27.75,-159.5,7
46.5,-15.75,-33.5,-10.25,67.75,12.0,25.75,-91.75,7
5.0,-18.75,-18.25,-3.75,54.5,23.0,17.0,11.5,7
0.0,-33.75,-21.0,-19.0,54.5,23.75,27.75,-2.0,7
-11.25,-14.75,-30.25,-21.25,33.75,23.25,19.5,19.0,7
-15.25,-17.5,-25.75,-30.25,37.5,12.75,17.0,25.25,7
-23.75,-27.0,-16.75,-30.5,36.0,24.5,13.25,34.5,7
-30.5,-14.0,-28.5,-20.0,25.5,21.75,24.0,51.75,7
-22.0,-11.0,-28.25,-29.0,29.0,8.75,35.75,40.75,7
-22.25,0.5,-19.75,-19.0,52.75,17.5,19.75,43.0,7
-3.25,-7.75,-12.0,-9.5,39.25,23.25,26.0,21.75,7
-0.5,-9.25,1.5,-17.5,45.25,24.25,27.25,29.25,7
5.75,-3.0,-11.25,-9.5,50.25,20.0,37.0,41.75,7
16.5,-4.5,-6.0,-16.25,57.5,33.25,35.25,33.0,7
30.25,-4.25,-1.75,-27.5,61.5,24.25,30.0,12.0,7
35.25,-4.0,-2.0,-12.75,28.25,24.0,35.5,12.75,7
-6.0,-4.0,17.75,-2.75,15.0,27.25,34.75,25.0,7
-29.75,1.75,2.75,1.5,17.0,17.25,29.0,19.5,7
-19.0,-1.25,-3.5,-17.0,20.75,21.75,30.0,34.75,7
-21.25,0.5,11.75,-17.25,1.25,14.5,40.0,28.25,7
-22.25,8.5,7.75,-4.0,13.25,23.75,43.0,26.5,7
-21.5,16.25,20.25,3.0,-0.5,17.25,54.5,16.0,7
-38.25,15.25,23.0,11.75,-10.75,23.25,40.75,8.5,7
-37.25,23.0,9.5,12.75,-8.0,28.0,40.5,15.0,7
-33.25,10.0,3.25,5.0,-16.75,22.75,46.5,19.0,7
-30.75,22.25,4.0,2.75,-9.25,26.25,35.5,12.25,7
-32.75,26.25,1.75,1.0,-15.25,29.75,26.75,6.5,7
-36.5,-1.5,-10.0,-11.0,5.25,23.0,28.25,25.5,7
-38.5,19.0,0.25,-8.25,8.75,9.0,19.0,34.25,7
-21.25,8.5,-5.75,-14.5,4.75,17.5,1.5,21.5,7
-10.75,17.25,-0.25,-16.75,21.0,30.25,10.75,28.0,7
3.0,21.75,-1.75,-20.5,44.5,27.5,6.25,30.25,7
46.75,7.25,-36.5,-23.0,90.5,34.75,4.0,15.0,7
73.5,13.25,-33.5,-21.0,95.25,40.75,20.5,26.75,7
47.0,10.75,-25.75,-23.0,92.25,41.0,19.5,45.0,7
50.5,10.75,-29.25,-20.75,97.5,52.5,26.0,49.75,7
62.5,10.5,-29.0,-21.0,61.5,41.5,30.0,39.25,7
39.5,0.0,-21.75,-16.25,61.5,36.25,35.0,31.5,7
30.0,-3.0,-16.0,-22.5,51.25,36.25,27.0,30.0,7
24.25,4.75,-8.75,-30.0,40.0,29.75,20.25,21.25,7
9.5,-12.75,-12.75,-26.5,41.25,25.0,21.5,22.75,7
-16.75,-7.75,-14.25,-20.75,26.5,27.5,24.25,25.0,7
-20.5,0.25,2.25,-25.75,24.75,29.25,40.5,26.25,7
-28.5,9.75,3.0,-32.75,9.0,36.0,27.75,22.0,7
-37.25,5.75,7.0,-23.5,-5.0,30.0,22.25,19.75,7
-49.75,11.25,11.25,-9.0,-3.25,11.25,32.0,13.25,7
-42.75,15.25,5.5,-7.0,0.5,21.75,24.0,11.5,7
-36.5,15.5,11.25,-9.0,0.75,28.5,14.75,10.25,7
-49.25,25.75,24.75,-2.0,-29.25,16.25,15.75,10.5,7
-63.25,5.5,32.25,-15.75,-35.0,-0.75,20.75,1.75,7
-64.5,19.0,16.25,-22.75,-0.25,7.25,17.75,9.75,7
-26.75,10.5,7.25,-10.75,14.75,20.0,35.5,22.25,7
-21.75,19.0,6.5,1.25,37.25,28.75,30.5,13.5,7
2.0,38.25,9.0,-3.0,43.0,45.75,29.0,16.0,7
5.0,29.25,-2.5,-13.0,45.25,35.5,32.5,26.5,7
3.0,13.0,-14.75,-16.75,46.25,30.0,24.25,31.0,7
16.0,3.0,-16.0,-7.0,24.5,17.0,37.0,20.5,7
-3.25,28.75,-22.5,-8.25,18.75,6.25,48.75,18.5,7
-4.5,23.0,-12.25,-21.0,0.5,7.5,28.75,22.0,7
-13.75,18.0,-11.0,-26.75,-8.0,3.0,29.5,0.75,7
-32.25,11.25,-13.5,-16.75,-10.0,11.0,38.5,-4.0,7
-34.0,9.5,-10.75,-14.5,-7.5,13.0,26.25,0.0,7
-45.75,6.5,0.25,-26.0,-13.75,6.75,16.25,-11.5,7
-52.75,-3.0,7.5,-15.25,-17.75,2.5,14.0,-9.0,7
-36.5,2.5,5.75,-19.0,13.75,16.75,23.5,-6.75,7
-8.75,9.25,-4.5,-22.0,31.0,10.75,11.0,-2.0,7
5.25,15.5,-12.0,-11.75,12.5,5.25,9.0,10.0,7
-32.25,11.75,1.0,-14.25,7.25,8.25,16.5,9.75,7
-18.0,-7.25,-8.25,-18.0,17.0,6.0,16.5,15.0,7
-1.75,-21.5,-11.5,-14.5,16.25,9.0,10.0,11.0,7
-18.75,-1.25,-12.75,-0.25,25.5,9.25,0.0,16.5,7
4.75,-1.75,-26.0,-2.0,27.25,10.25,14.0,6.25,7
1.0,1.75,-21.75,-8.5,28.0,9.0,29.0,-1.75,7
10.25,-2.75,-8.75,-14.25,30.5,17.5,23.75,35.5,7
11.5,-5.25,-15.75,-19.5,33.25,17.75,19.25,56.25,7
14.25,3.0,-20.0,-25.75,33.75,21.75,25.0,66.25,7
22.75,-7.75,-21.0,-30.75,29.25,36.0,27.0,45.25,7
3.5,9.25,-24.5,-34.75,16.75,38.75,26.25,25.0,7
-3.75,10.75,-12.75,-32.0,5.5,16.25,21.5,10.5,7
-11.75,7.75,-4.0,-25.75,1.0,0.0,20.25,-17.5,7
-29.75,10.75,-0.5,-23.5,-33.0,7.25,25.0,-25.25,7
-71.75,0.25,12.75,-22.0,-68.5,-2.75,18.75,-65.25,7
