0,1,2,3,4,5,6,7,label
-1063.5,887.0,931.0,-1134.5,1435.75,1381.75,1861.25,-1317.75,8
-1068.25,886.5,941.5,-1138.75,697.25,1368.25,1865.5,-1427.75,8
-1069.75,882.25,951.5,-1142.25,-585.75,700.0,1849.75,-1518.5,8
-1079.25,870.25,936.0,-1138.25,-458.0,-611.75,1845.5,-1529.0,8
-1075.75,869.5,936.0,-1119.5,-413.25,-204.5,1851.0,-1541.0,8
-1080.0,866.0,932.0,-1121.25,-469.5,349.5,1848.25,-1553.75,8
-1070.25,896.75,929.25,-1110.25,394.75,478.5,1856.75,-1560.0,8
-1051.5,910.25,932.75,-1083.0,1563.25,904.75,1870.5,-1566.75,8
-1066.5,909.25,929.75,-1087.0,1591.0,866.75,1884.25,-1621.0,8
-1071.0,913.75,948.75,-1091.5,1616.0,827.5,1889.5,-1089.75,8
-1060.5,924.25,951.5,-1073.25,1554.5,813.5,1895.0,-769.25,8
-1052.75,673.75,965.5,-1064.5,1300.5,831.75,1902.5,-156.5,8
-1060.0,156.5,993.25,-1034.0,1201.25,858.75,1904.0,233.25,8
-1048.5,-42.5,1009.5,-1024.5,1409.5,847.0,1905.5,614.0,8
-1029.75,-399.75,997.0,-1042.25,1672.5,853.75,1814.25,729.0,8
-1013.75,-565.75,911.5,-1041.75,1570.25,883.75,1781.75,792.5,8
-1018.0,-772.25,809.5,-1050.0,1369.75,906.0,1653.0,721.75,8
-1009.5,-924.5,683.5,-1041.5,1154.75,940.0,1592.0,677.0,8
-998.5,-991.25,587.25,-1031.75,1119.0,987.25,1529.25,720.25,8
-997.25,-990.0,525.0,-1015.0,1636.0,1045.25,1552.75,811.25,8
-986.5,-974.0,497.5,-1002.25,2121.0,1088.5,1589.25,889.25,8
-993.5,-967.0,418.0,-994.5,2103.75,1118.75,1590.5,837.0,8
-870.25,-976.5,425.75,-973.0,1837.75,1149.0,1619.75,749.75,8
-749.5,-951.75,435.0,-973.0,1681.75,1152.25,1495.25,733.25,8
-677.0,-951.75,258.0,-967.75,1320.5,1150.75,1335.25,668.0,8
-472.25,-967.0,82.5,-980.25,968.25,1138.25,1293.75,691.5,8
-173.75,-964.5,88.25,-976.0,795.5,1102.25,1360.75,797.5,8
95.25,-959.25,32.75,-957.5,542.75,1066.5,1015.0,879.75,8
647.5,-954.0,-324.75,-951.75,234.25,1025.0,698.0,982.0,8
1009.5,-946.75,-629.0,-946.0,150.75,1004.25,461.75,1036.0,8
1020.25,-935.0,-900.5,-957.5,182.75,1018.75,274.0,1040.75,8
1024.75,-940.5,-959.0,-857.25,229.25,1054.75,218.25,1044.0,8
1020.5,-926.5,-840.75,-610.25,138.25,1100.5,155.5,1067.75,8
1021.5,-793.0,-709.0,-379.5,11.5,1147.0,145.5,1063.75,8
1014.0,-557.5,-658.5,-123.0,292.25,1105.0,125.75,1075.75,8
1002.75,-110.5,-957.25,155.0,470.75,1001.25,118.25,955.25,8
1029.5,517.5,-970.25,414.0,-673.25,890.0,188.5,428.5,8
1023.0,862.0,-971.25,559.5,-1527.25,830.0,178.75,102.25,8
1015.75,947.75,-984.0,684.0,-1584.25,787.25,88.0,234.0,8
1030.0,338.0,190.25,542.75,-1124.0,777.0,-51.25,1175.25,8
-989.75,-693.5,986.5,387.25,-841.5,657.75,-161.25,864.75,8
-994.25,-117.75,646.5,696.0,-1282.0,431.75,-248.25,112.25,8
787.75,558.5,-14.0,919.75,-1126.75,333.75,-343.75,-232.25,8
1012.75,1010.75,-344.0,1033.5,-1082.0,141.5,-418.5,-334.75,8
1002.5,1023.25,-505.75,1020.75,-783.25,-79.25,-511.25,-273.5,8
1003.5,1038.0,-532.5,1001.25,-446.75,-184.5,-54.0,-280.0,8
1011.75,1044.25,224.0,992.5,-337.5,1139.0,-39.5,-337.25,8
-986.75,1030.5,1024.0,-337.0,1629.0,1034.75,-20.25,-329.0,8
-978.5,1044.5,1043.25,-1006.75,1467.5,986.75,-39.75,-363.5,8
-983.5,1038.0,1041.5,-997.25,-618.0,919.25,-33.5,-399.5,8
-973.75,1036.5,1029.0,-1003.75,-754.5,860.25,-47.25,-403.75,8
-968.0,1051.5,1024.0,-998.5,-865.5,873.5,-66.75,-463.25,8
-980.5,1053.5,1007.0,-412.25,-1005.25,-59.5,-69.5,-517.0,8
-989.25,1039.25,995.25,-132.0,-1160.0,-558.25,-177.75,-542.5,8
-997.25,1030.5,982.75,718.75,-1280.25,-1095.5,-1121.75,-149.5,8
-1000.5,-135.5,841.5,1025.25,-1495.25,-1065.0,-1577.75,-93.0,8
-1011.0,-600.0,724.5,627.25,-1381.25,-1057.75,-1578.5,250.25,8
-1004.25,-383.75,533.5,683.75,-1101.0,-1049.5,-1855.25,501.0,8
-1005.0,-953.0,362.5,559.75,-896.0,-1024.75,-1969.5,574.0,8
-1015.25,-493.75,422.75,461.25,-793.75,-1048.0,-1987.5,701.5,8
-1019.25,-911.25,172.0,761.5,-688.75,-1048.5,-2013.75,885.75,8
-1023.75,-1001.25,-451.25,981.25,-551.75,-1060.5,-2011.25,1070.75,8
-366.5,-1000.75,-977.75,989.25,-557.0,-1096.75,-2029.0,1016.5,8
466.5,-1000.25,-968.75,1001.25,-483.25,-1118.5,-2037.25,1001.5,8
130.25,-1010.75,-967.25,994.75,930.25,-1105.5,-2042.25,1002.0,8
322.75,-1010.5,-967.0,1004.0,19.5,-1112.75,-2035.25,1040.0,8
477.0,-994.5,-986.5,1006.0,386.75,-1143.25,-1995.5,920.5,8
430.0,-975.5,-979.25,1009.75,92.0,-1150.75,-1973.5,1001.0,8
872.0,-959.5,-983.0,1009.0,205.25,-1150.25,-1975.75,1012.5,8
1007.5,-975.25,-995.0,999.75,229.75,-1119.25,-1998.75,911.5,8
1010.25,-972.0,-997.75,994.0,1449.5,-1076.5,-1918.25,910.5,8
1013.25,-964.75,-1024.5,979.25,1492.25,-1030.75,-1773.5,843.75,8
1011.0,-988.5,-1040.25,926.75,1482.75,-376.5,-1668.75,142.75,8
1017.0,-992.25,-1039.5,727.25,1458.0,-708.75,-1573.5,404.5,8
1018.25,-997.0,-1029.75,968.0,1553.5,-579.5,-1489.0,-55.5,8
1005.5,-998.75,-1007.0,-5.75,1757.75,-84.0,-1147.5,-156.75,8
827.75,-998.75,-1022.25,597.5,1688.25,-715.25,-1000.75,115.25,8
1003.75,-1015.0,-1017.5,351.25,1712.5,-297.5,-508.5,-192.25,8
618.0,-1017.5,-893.5,356.0,591.25,-526.25,-314.0,-3.0,8
911.75,-1004.5,-958.25,391.5,99.25,-364.5,193.0,-109.25,8
743.75,-1010.75,-1011.25,679.0,-764.75,-823.5,11.5,287.5,8
985.25,-1018.0,-1010.75,984.0,-890.75,-881.25,27.0,314.0,8
976.25,-1018.75,-1006.5,989.25,-965.75,-864.25,26.75,203.75,8
976.5,-1032.0,-1017.0,572.5,618.75,675.0,705.75,-1298.0,8
768.25,-774.75,-148.0,-995.0,354.75,1153.75,1153.75,-1258.25,8
477.75,-673.75,-341.75,-237.75,306.75,355.5,778.0,-798.75,8
568.5,-531.0,-180.5,-374.0,345.0,669.75,1037.75,-978.5,8
341.5,-353.75,-205.5,-153.75,333.25,235.25,744.75,-656.0,8
667.5,-450.0,-302.0,-131.75,316.25,353.0,991.5,-922.5,8
340.5,-179.5,-109.5,-213.0,131.25,189.5,873.5,-775.0,8
560.0,-257.5,-227.0,-91.75,-779.5,169.5,958.75,-884.75,8
261.0,-13.75,55.0,-328.5,-111.25,290.5,1007.5,-892.25,8
220.0,16.25,20.0,-190.0,-1748.75,50.75,887.75,-931.5,8
249.5,-1.0,-146.5,109.0,-1797.5,-159.0,633.25,-712.75,8
837.5,-358.75,-675.25,463.5,-1840.75,-176.0,534.25,-178.75,8
990.0,-365.5,-594.75,121.0,-524.5,235.25,681.5,52.25,8
989.5,-379.75,-672.0,280.75,-978.0,146.0,553.0,93.75,8
998.0,-434.5,-674.75,85.75,102.25,508.0,801.75,-185.75,8
992.75,-257.25,-481.25,-48.5,172.25,415.0,775.25,-20.75,8
1001.5,-271.0,-452.5,-131.5,192.75,498.5,1043.25,-61.75,8
632.0,138.5,158.5,-645.25,103.25,665.0,1245.25,-69.5,8
273.75,312.25,236.5,-363.5,-573.5,84.75,975.75,109.25,8
456.5,180.25,-38.5,-63.5,-910.75,-46.5,847.25,-44.5,8
507.25,202.25,103.25,-315.0,1724.0,101.0,871.0,-175.0,8
275.25,339.0,252.5,-338.75,596.5,-190.5,588.75,102.0,8
489.75,128.0,-269.5,316.0,-315.5,-945.5,-28.25,556.0,8
997.5,-398.75,-999.75,950.75,-272.75,-1473.5,-674.0,764.75,8
990.5,-898.5,-1005.25,944.0,-234.25,-1329.75,-639.5,623.25,8
985.75,-900.75,-1008.75,640.75,1612.75,-412.5,-208.75,55.25,8
986.75,-710.75,-898.5,137.75,1563.25,152.0,65.25,-347.5,8
990.0,-366.25,-173.0,-665.0,1593.5,688.25,474.25,-853.75,8
824.25,96.0,461.0,-1002.25,1492.5,801.25,350.5,-667.25,8
599.0,203.75,448.75,-766.75,1472.0,656.75,134.25,-557.5,8
436.5,284.25,522.25,-717.0,1457.25,417.25,-67.5,-476.25,8
344.5,320.0,485.75,-529.5,1440.0,63.5,-346.25,-396.75,8
374.75,265.0,286.25,-261.75,838.5,-281.75,-710.5,-258.5,8
581.5,84.0,-25.0,26.25,-458.0,-450.0,-857.0,-313.5,8
555.25,124.0,188.25,-310.75,509.0,-186.0,-730.5,-571.75,8
393.25,195.5,251.5,-234.25,172.5,-457.25,-966.0,-184.0,8
584.75,29.75,-127.75,145.5,-1973.25,-734.75,-1303.0,327.75,8
876.25,-240.75,-675.75,691.75,-2449.75,-1326.5,-1940.5,986.0,8
988.0,-814.5,-1000.25,998.25,-2501.5,-1337.5,-2181.0,950.25,8
1006.0,-959.75,-1000.25,974.25,-2493.5,-858.25,-1773.5,419.25,8
1010.5,-463.75,-317.75,-40.75,-519.25,241.5,-1030.0,-438.5,8
499.75,79.25,633.5,-853.75,-595.25,760.5,-607.0,-893.5,8
125.25,335.5,768.0,-681.75,-627.5,428.75,-977.25,-360.25,8
552.25,-20.75,83.5,-146.25,-678.0,342.5,-850.0,-539.75,8
98.5,382.75,1008.75,-1035.25,-625.5,1025.25,-223.25,-878.5,8
-248.75,586.75,996.25,-759.75,-651.5,621.25,-561.25,-337.0,8
-74.25,471.5,927.75,-889.25,-770.5,1093.25,-45.25,-762.75,8
-723.75,957.0,1009.75,-1025.5,-562.0,1165.0,54.25,-575.25,8
-845.75,994.0,1000.5,-1008.25,-626.5,1076.75,218.5,-645.75,8
-1004.75,978.25,1014.5,-991.5,-801.5,950.25,71.75,-218.5,8
-917.25,918.75,979.25,-321.25,-2591.25,422.0,-212.25,55.0,8
-834.5,927.25,999.5,-690.5,-1708.75,902.25,157.5,-231.25,8
-1013.25,972.0,985.5,-366.0,-1840.75,335.0,-245.0,205.25,8
-632.25,663.5,540.25,-156.5,-1154.75,486.0,-35.0,-192.0,8
-961.5,908.75,992.75,-668.5,187.25,707.5,128.0,-251.0,8
-1023.5,909.75,844.75,-386.5,-700.0,420.75,-11.75,-52.5,8
-956.5,890.25,841.75,-486.5,-865.75,665.75,270.0,-320.5,8
-1005.5,1024.0,998.25,-831.5,-1104.5,770.5,450.0,-288.75,8
-1012.5,1033.5,993.25,-505.25,-1066.75,429.0,286.0,0.0,8
-1003.5,1023.25,752.5,-199.75,-1153.75,202.0,232.25,171.25,8
-996.0,855.5,401.25,133.0,-1172.25,-35.0,108.25,391.25,8
-720.5,608.0,73.25,212.0,-931.0,187.25,326.5,66.5,8
-963.0,825.25,655.0,-436.25,-806.25,623.0,698.5,-165.5,8
-1016.5,892.0,558.5,-90.75,-396.75,90.0,361.25,338.25,8
-746.0,518.5,-133.0,491.25,-468.0,-201.75,160.75,508.25,8
-401.5,293.25,-358.25,498.25,-591.25,-108.5,155.0,393.5,8
-293.5,239.5,-271.5,257.0,-699.0,142.0,243.0,190.0,8
-343.5,284.25,-173.5,206.5,-595.0,10.5,12.25,446.25,8
-9.5,-15.25,-806.25,860.0,42.0,-470.5,-421.5,778.25,8
443.0,-297.0,-1008.75,877.25,287.5,-192.5,-360.75,457.0,8
415.25,-232.75,-722.0,391.25,2690.75,256.75,-141.75,-4.25,8
45.25,69.0,70.75,-377.25,2984.0,843.5,297.25,-522.0,8
-576.5,479.5,673.5,-652.5,2935.0,619.5,177.25,-162.5,8
-588.5,403.5,255.75,-60.25,404.25,137.0,-15.0,105.25,8
-534.75,380.5,279.5,-136.75,821.75,193.25,68.25,91.5,8
-527.0,358.25,116.75,93.75,366.0,-95.0,-73.75,317.0,8
-421.25,287.25,92.0,11.25,1169.0,-21.5,71.25,269.5,8
-476.0,308.75,92.75,85.5,971.75,-273.5,-71.75,528.0,8
-286.0,160.0,-183.25,249.5,978.75,-318.75,-59.75,499.75,8
-247.25,142.0,-150.25,181.75,789.5,-360.0,-136.5,674.5,8
-40.75,-12.25,-473.25,497.0,593.0,-541.0,-287.5,844.75,8
169.75,-111.5,-584.25,449.5,806.75,-447.0,-332.25,853.5,8
331.75,-213.0,-732.25,512.25,1190.75,-504.0,-452.5,904.25,8
474.0,-299.0,-775.25,442.25,2401.0,-460.0,-448.5,854.0,8
568.5,-361.0,-861.25,520.25,1921.0,-559.5,-633.0,1039.25,8
762.0,-515.5,-1016.0,625.0,2153.25,-459.5,-670.0,899.5,8
735.75,-426.5,-615.5,73.0,2864.25,184.25,-396.5,421.5,8
429.5,-219.5,-123.5,-233.75,2843.75,187.75,-501.0,638.75,8
430.75,-273.25,-418.5,178.0,3009.25,-183.0,-742.75,851.25,8
516.25,-314.0,-389.5,97.5,2783.75,-40.25,-787.25,757.5,8
504.25,-350.0,-525.5,302.5,1086.25,-434.0,-1077.25,1049.25,8
721.75,-539.5,-844.25,516.25,-61.5,-483.25,-1142.0,962.75,8
782.5,-576.5,-868.25,523.5,-824.5,-593.25,-1346.0,1174.5,8
986.0,-782.25,-999.25,986.25,-1777.25,-1115.75,-1771.5,1549.25,8
1001.75,-1005.5,-989.25,984.0,-1420.0,-1320.25,-1878.75,1473.75,8
991.0,-1000.0,-992.75,966.5,-1604.5,-1310.75,-1843.25,1423.0,8
989.5,-994.0,-998.5,975.0,-1596.25,-1317.0,-1819.25,1351.75,8
721.75,-977.25,-1011.25,978.5,-1098.75,-1324.75,-1762.75,1298.75,8
993.75,-985.75,-1018.75,979.5,574.25,-1342.25,-1694.0,1274.5,8
1004.5,-986.75,-1011.5,997.75,82.75,-1300.75,-1610.75,942.25,8
1001.25,-981.75,-1009.25,562.0,129.5,267.25,-589.0,-789.75,8
993.0,-167.75,194.5,192.75,429.25,617.75,552.0,-855.75,8
982.5,984.5,983.0,-856.0,59.0,628.0,637.75,-885.5,8
225.75,949.25,997.25,-992.5,312.25,639.5,732.25,-931.75,8
-585.0,922.75,989.0,-1001.25,164.0,621.25,793.75,-973.75,8
-1050.0,917.5,985.0,-1007.75,90.5,594.5,825.75,-981.5,8
-677.75,918.0,1002.0,-1018.75,534.25,606.75,983.5,-998.75,8
-159.25,942.25,996.5,-897.25,-1666.25,618.75,739.25,-287.5,8
983.0,-520.25,-1000.0,51.25,-1586.25,-1388.0,-643.75,1003.75,8
1003.25,-1003.5,-1020.5,233.5,-1510.25,-1367.25,-504.0,1008.25,8
451.5,-986.5,-1022.75,-233.0,-1506.0,-1391.75,-382.0,1011.75,8
-998.25,-983.75,-1014.0,-554.0,-1433.0,-1036.5,-265.75,1033.25,8
-985.75,-976.0,-783.5,-765.5,-459.75,-644.0,-211.25,1040.5,8
-1000.5,-973.25,180.0,-979.25,-598.75,-100.0,81.5,1035.25,8
-1003.0,-969.5,496.0,-995.0,-840.5,59.25,391.25,1032.5,8
-1005.25,-973.75,993.5,-1002.25,-504.0,436.0,869.5,1015.75,8
-1001.0,-585.5,1007.5,-993.5,43.5,500.25,1146.25,398.0,8
-1005.25,-42.5,1004.5,-938.5,234.25,633.25,1486.25,-392.25,8
-746.75,581.0,997.25,-833.5,705.5,666.75,1651.5,-941.0,8
-69.25,1010.0,1001.75,-748.25,839.0,713.0,1796.0,-1034.5,8
286.25,1018.75,998.25,-679.0,378.0,750.25,1765.25,-1056.25,8
412.5,1010.25,984.25,-660.5,161.5,772.75,1733.0,-1090.5,8
-149.25,999.75,987.75,-741.25,44.25,802.0,1738.5,-1109.5,8
-417.5,983.5,979.0,-713.25,401.5,736.25,1748.5,-1130.0,8
-213.5,964.75,974.25,-668.25,382.25,691.0,1755.0,-1146.75,8
-81.5,975.0,985.0,-569.75,6.5,544.0,1801.75,-1149.75,8
66.5,999.5,990.5,-508.5,-82.0,474.5,1813.75,-1211.75,8
133.25,1004.5,1005.25,-432.25,-229.25,432.25,1822.75,-1271.75,8
-182.0,998.75,997.75,-469.5,-131.25,494.75,1807.75,-1260.0,8
-999.25,1004.25,1002.5,-559.5,-52.75,490.25,1776.25,-611.5,8
-995.75,884.5,990.75,-620.5,147.0,400.25,1759.5,-227.75,8
-1002.5,609.0,989.0,-700.75,296.75,358.75,1727.25,230.75,8
-1004.75,175.5,1005.25,-756.25,110.75,265.75,1706.5,304.75,8
-1012.0,72.75,994.5,-690.75,223.0,131.25,1710.5,-208.5,8
-1011.0,391.0,995.75,-487.75,132.75,-44.25,1624.25,-659.25,8
-1001.0,722.75,988.0,-340.0,-56.5,-107.25,1573.75,-965.0,8
-868.75,1018.0,890.5,-158.5,-630.75,-185.75,1479.0,-1107.25,8
480.0,997.0,253.5,33.5,-1523.25,-313.75,1406.25,-1007.5,8
998.0,1007.25,-246.75,198.0,-1617.75,-443.5,1323.5,-1024.75,8
995.5,1025.0,-467.5,308.0,-1671.75,-478.75,1138.25,-1049.5,8
1003.25,1015.75,-431.0,313.5,-1616.5,-475.75,860.0,-1081.0,8
986.75,1013.75,-502.5,354.0,-1578.75,-448.25,522.25,-1148.75,8
991.75,1017.25,-426.5,329.5,-1623.75,-401.25,180.75,-1263.25,8
1002.75,1010.0,-290.5,272.75,-1588.25,-350.0,-104.0,-1428.5,8
650.25,1022.75,-132.75,251.75,-1522.75,-185.75,-309.5,-1321.5,8
-199.5,739.25,185.0,162.0,-1403.0,-105.25,-498.25,-1011.0,8
-1002.75,372.25,560.0,77.5,-1202.25,-78.0,-616.0,-881.0,8
-1005.75,258.0,626.0,87.5,-1076.25,-47.75,-719.75,-965.25,8
-998.75,366.25,307.75,135.0,-847.75,0.0,-812.75,-1066.5,8
-468.0,483.75,-63.5,192.5,-651.5,58.0,-841.5,-1205.5,8
357.5,637.5,-458.25,265.0,-655.25,108.25,-841.5,-1305.0,8
915.75,732.0,-680.5,306.5,-436.0,221.5,-812.5,-1220.75,8
992.0,779.75,-825.0,350.25,-323.75,356.0,-791.75,-1088.0,8
999.25,824.25,-961.75,393.75,-263.0,397.5,-800.0,-911.25,8
997.25,826.25,-1003.0,426.75,-183.5,340.75,-859.0,-841.5,8
990.75,920.75,-998.25,484.25,-161.25,348.5,-940.5,-879.0,8
993.5,965.25,-1009.75,509.5,-133.25,382.5,-1103.0,-782.25,8
992.25,913.0,-1001.25,493.5,-131.5,374.25,-1319.5,-703.0,8
978.75,903.25,-1011.0,524.75,-20.75,319.0,-1309.0,-734.5,8
987.25,964.0,-1025.0,548.25,9.0,342.75,-1298.0,-768.75,8
983.75,972.0,-1022.5,557.0,-50.75,472.0,-1293.75,-751.0,8
983.5,943.75,-1020.25,553.25,-59.0,533.0,-1285.0,-846.0,8
985.5,1003.75,-1021.5,594.5,-129.0,508.0,-1230.5,-1079.5,8
975.5,1000.5,-1015.25,604.75,-160.5,457.0,-1183.75,-1048.75,8
988.75,995.5,-1015.0,588.75,-197.0,379.0,-1128.0,-991.75,8
988.25,991.5,-1017.0,608.25,-212.75,300.0,-998.75,-943.0,8
988.75,992.5,-1011.0,631.5,-241.0,335.25,-766.0,-944.25,8
989.5,980.25,-792.5,567.75,-389.75,557.25,-294.5,-948.75,8
981.5,987.75,103.5,374.0,400.25,1030.5,-197.25,-923.0,8
-60.25,997.75,992.0,-201.25,1554.5,1014.25,-245.0,-892.25,8
-1011.0,994.75,988.0,-1026.5,1603.5,1026.5,-300.5,-856.5,8
-1009.75,1001.25,996.0,-1008.0,1737.75,1104.75,-372.75,-786.75,8
-1002.0,1004.25,1007.25,-1019.5,1876.25,1136.75,-441.5,-730.0,8
-1003.25,1008.0,1004.25,-1009.5,2037.0,1205.0,-525.25,-719.0,8
-997.5,999.5,1002.25,-1016.75,385.5,1157.0,-610.0,24.25,8
-1006.5,1004.5,1001.5,-1023.25,8.75,541.0,-802.5,734.5,8
-1003.75,550.0,1010.25,-797.5,30.0,246.5,-1553.0,1283.5,8
-996.0,-396.5,528.0,-268.75,66.25,-251.75,-1715.75,1272.25,8
-999.0,-920.25,35.0,-132.25,90.0,-260.75,-1457.5,1247.5,8
-993.5,-1015.0,-392.0,-10.75,85.0,-407.25,-1295.5,1254.75,8
-999.25,-1008.25,-851.75,197.5,40.75,-379.0,-958.5,1299.25,8
-955.75,-1001.25,-1006.75,221.75,27.0,-365.0,-890.75,1345.25,8
-775.0,-1002.25,-1005.0,195.75,113.75,-387.25,-873.75,1383.5,8
-876.0,-999.25,-1010.25,255.75,91.25,-361.5,-848.75,1398.75,8
-179.0,-989.25,-1005.75,753.5,121.0,-294.75,-875.25,1417.0,8
141.5,-994.0,-1006.75,638.25,173.5,-304.0,-1010.25,1444.25,8
-64.0,-993.25,-1005.75,546.75,92.25,-302.75,-1078.0,1417.75,8
174.0,-1000.0,-1006.5,596.25,33.0,-340.75,-1028.5,1362.75,8
83.5,-999.0,-1017.75,478.0,-34.0,-454.5,-489.5,1282.5,8
282.5,-985.75,-995.5,645.75,-196.25,-572.75,236.75,1207.0,8
479.25,-994.25,-1006.25,671.0,-300.0,-800.75,967.75,1161.25,8
622.25,-985.5,-999.0,746.0,-445.5,-979.25,1124.5,1156.75,8
709.0,-988.25,-1006.0,646.75,-666.75,-1025.5,1160.25,1210.5,8
534.0,-988.0,-1007.25,563.75,-890.75,-1054.75,1191.75,1278.75,8
731.0,-995.75,-1002.25,681.75,-1208.5,-1141.75,1232.25,1288.25,8
748.25,-998.25,-998.75,540.25,-642.75,-932.75,1251.75,1231.25,8
553.5,-1001.0,-980.5,399.5,-537.75,-770.0,1097.5,1167.75,8
537.0,-1007.25,-999.0,398.75,-638.5,-738.5,1254.5,1129.0,8
501.0,-1004.75,-998.5,332.25,-183.5,-677.75,1253.0,1122.25,8
333.75,-1015.0,-937.5,228.25,458.25,-793.5,1015.25,1120.75,8
480.25,-1007.0,-1000.25,470.25,23.75,-1098.25,636.5,1098.0,8
845.5,-1008.5,-1003.0,587.75,388.75,-1184.75,324.75,1114.25,8
815.0,-995.0,-1002.75,510.75,949.0,-1133.25,641.25,1127.75,8
868.75,-996.0,-992.25,517.75,1022.25,-1083.75,1298.0,1037.25,8
861.0,-998.75,-941.5,428.5,1514.25,-1120.5,1538.75,946.5,8
840.0,-1002.25,-901.75,436.5,1513.25,-1208.5,1558.5,942.5,8
875.75,-1003.0,-851.5,403.25,1495.75,-1211.75,1623.75,909.75,8
943.5,-983.75,-880.75,492.75,1251.75,-1311.25,1522.5,1107.75,8
1000.0,-992.25,-990.25,619.5,1109.25,-1264.75,1537.25,994.0,8
1001.5,-992.0,-813.75,423.5,1338.0,-820.75,1764.0,538.25,8
802.0,-807.5,-500.5,179.0,1226.0,-487.25,1250.75,357.5,8
629.0,-624.5,-331.25,105.5,1073.75,-468.0,634.0,317.75,8
582.75,-563.25,-276.75,94.75,897.25,-473.0,158.75,243.25,8
593.75,-510.75,-229.0,39.75,721.75,-556.25,157.75,122.0,8
316.5,-267.75,74.0,-207.5,574.5,-526.25,386.0,-41.25,8
56.25,-54.25,253.5,-315.0,683.25,-418.5,375.5,-65.75,8
19.75,13.0,291.25,-298.0,566.0,-290.75,132.75,15.75,8
61.75,6.25,194.5,-160.0,281.0,-367.75,-251.75,185.5,8
304.25,-102.25,100.0,-129.5,183.75,-100.5,-294.25,-145.5,8
-87.25,198.5,456.75,-432.0,77.0,229.25,-318.5,-225.0,8
-96.75,214.75,345.25,-250.0,171.5,68.25,-670.25,76.0,8
157.0,97.0,242.25,-186.25,1461.5,175.0,-653.25,9.25,8
1.0,219.25,355.0,-252.75,2392.0,115.5,-720.25,27.75,8
-11.5,225.0,361.25,-264.25,1968.75,116.5,-907.5,81.0,8
-95.5,306.0,425.25,-301.0,1599.25,274.75,-1126.5,263.5,8
-36.25,275.25,361.25,-214.5,1358.25,365.75,-1255.0,343.75,8
-70.75,326.5,416.75,-259.25,1879.25,542.25,-1186.0,387.5,8
-83.5,347.5,419.5,-222.25,2029.25,663.5,-1140.75,502.5,8
-21.5,302.25,374.25,-169.75,1884.25,688.75,-1000.5,509.75,8
-31.75,337.5,392.75,-214.25,1828.25,737.25,-967.75,443.25,8
18.0,298.75,330.0,-173.25,1645.5,675.5,-940.75,-69.25,8
-87.75,390.25,453.5,-302.25,2298.0,811.0,-745.0,-606.25,8
-319.5,543.5,571.75,-350.75,1761.5,835.25,-876.0,-696.5,8
-124.25,409.25,353.75,-132.75,429.75,662.25,-977.5,-759.25,8
-45.5,371.75,346.5,-157.5,319.5,703.0,-895.75,-816.75,8
-51.5,349.25,301.25,-100.25,-195.0,531.75,-876.5,-778.75,8
-39.25,322.5,282.0,-113.25,-419.25,514.0,-747.0,-795.25,8
-18.5,303.5,220.5,-41.5,-899.25,634.0,-732.25,-741.75,8
92.0,246.25,184.0,-38.75,-481.75,818.75,-624.5,-886.25,8
-25.25,287.75,223.5,-46.25,-632.5,661.5,-753.0,-776.5,8
271.25,81.75,-73.0,248.0,-1404.25,439.25,-968.5,-665.5,8
461.25,-31.5,-137.25,226.25,-793.0,587.5,-846.75,-884.0,8
363.5,13.5,-67.75,156.25,-284.0,677.25,-767.25,-1072.25,8
418.5,-70.75,-172.75,224.0,-481.75,628.0,-787.75,-1020.25,8
562.5,-192.75,-289.75,244.75,-475.75,505.25,-695.75,-997.75,8
620.25,-240.5,-337.25,258.25,-1008.25,452.25,-674.75,-893.0,8
798.5,-390.0,-516.0,402.0,-2216.25,227.75,-765.75,-671.25,8
998.5,-634.75,-791.25,601.25,-3240.5,-147.75,-964.5,-205.75,8
989.75,-993.5,-1007.75,891.25,-3281.25,-538.75,-1102.25,129.0,8
983.0,-996.25,-1017.0,721.25,-3027.75,-310.75,-587.25,-416.75,8
911.0,-491.0,-250.25,45.5,-1244.25,282.5,144.75,-1223.25,8
-83.25,189.0,506.25,-466.0,-1228.25,423.75,507.25,-1470.0,8
-422.5,388.0,668.25,-557.5,-1206.5,237.5,537.0,-1280.25,8
-317.5,347.5,590.25,-486.5,-1183.0,264.25,593.0,-1274.75,8
-569.75,578.25,895.5,-783.75,-705.0,701.5,764.0,-1219.5,8
-841.5,719.5,899.5,-659.0,-451.75,510.5,244.5,-556.25,8
-107.25,209.25,262.75,-116.75,-617.0,179.75,-309.0,-133.5,8
41.0,161.5,327.0,-233.0,-187.5,322.75,-582.25,-136.25,8
-13.75,119.0,158.75,-18.0,-1398.25,-65.0,-1174.5,414.25,8
588.5,-316.5,-288.5,258.75,-2168.0,-175.75,-1218.0,365.25,8
349.5,-103.5,50.5,-65.75,-414.75,230.25,-835.25,-195.25,8
-238.75,278.75,465.75,-338.0,-654.75,479.5,-586.75,-414.25,8
-307.75,286.5,305.5,-141.5,-1363.0,92.25,-1113.75,410.5,8
900.5,-682.5,-980.75,757.5,-2354.25,-789.5,-1809.25,1283.75,8
1004.5,-1006.25,-1000.0,989.0,-1996.25,-831.0,-1748.25,1398.5,8
1007.25,-999.5,-988.75,1000.75,-1863.75,-840.0,-1766.5,1429.5,8
997.75,-1000.25,-989.75,1002.5,-2235.5,-712.25,-1749.0,1410.25,8
1007.75,-994.75,-994.5,1005.25,-2402.0,-572.25,-1708.5,1321.5,8
1002.25,-995.75,-999.5,818.75,-2375.5,-419.75,-1660.25,1292.0,8
1009.75,-1000.0,-1003.25,527.25,-2483.0,-392.25,-1573.75,1359.5,8
1006.0,-1000.5,-1002.25,240.0,-2449.0,-264.25,-1443.25,1622.25,8
718.0,-1001.25,-1005.25,2.0,-1315.5,176.0,-1249.5,1944.5,8
203.0,-987.5,-512.25,-151.75,-369.75,409.0,-806.0,1847.75,8
-491.5,-991.75,107.75,-355.25,-335.75,693.5,-310.0,1581.5,8
-1002.5,-756.25,550.75,-490.75,-225.0,858.0,186.25,1310.25,8
-1003.0,-293.0,989.25,-604.75,-67.5,952.0,727.0,734.5,8
-1000.25,27.75,1016.0,-737.75,75.5,991.0,799.25,461.5,8
-1005.75,71.5,1013.0,-874.75,83.75,1048.0,968.0,49.25,8
-1004.5,274.5,1002.75,-987.25,284.25,972.5,1022.5,-160.75,8
-1002.25,221.5,1007.5,-985.25,424.0,919.0,975.0,-356.0,8
-1004.25,199.25,1004.25,-983.75,426.75,885.75,1003.0,-443.5,8
-998.0,-8.75,1007.25,-996.75,377.5,755.75,1055.25,-184.0,8
-999.75,-229.0,1005.25,-1001.75,354.0,703.25,1047.0,-493.0,8
-1000.75,63.0,1000.5,-1015.75,421.75,550.25,1036.0,-1094.75,8
-1000.25,520.25,1003.75,-1030.5,502.75,345.5,1034.25,-1606.0,8
-1009.25,936.0,1002.75,-1045.75,480.75,103.75,952.5,-2081.5,8
-1011.5,1009.5,986.25,-942.5,403.75,25.5,916.75,-2185.0,8
-1007.25,995.25,980.25,-773.25,335.0,-33.5,930.0,-1518.75,8
-1009.75,1005.5,985.0,-626.75,256.0,-150.75,856.5,-525.0,8
-1008.0,997.5,996.75,-515.5,292.0,-246.25,659.75,-140.25,8
-160.5,1000.25,1012.5,-383.0,290.25,-357.75,464.5,-130.5,8
743.25,1007.5,771.0,-265.75,321.75,-436.75,480.0,-137.25,8
988.75,1008.75,514.75,-154.0,-75.5,-583.5,646.0,-154.0,8
991.5,1021.0,525.75,-78.75,-593.5,-758.5,872.75,-131.25,8
989.75,1014.25,376.0,-21.5,-883.75,-957.0,1102.5,-642.75,8
998.0,1012.75,-170.5,48.0,-848.75,-941.25,1189.25,-1044.75,8
997.75,1004.5,-517.75,103.0,-1088.0,-883.75,1141.5,-1208.0,8
989.5,1011.75,-691.75,164.75,-1168.75,-839.5,1048.5,-1372.25,8
1002.0,1016.5,-977.5,229.75,-894.25,-608.0,1069.0,-1609.5,8
993.5,1007.75,-951.25,252.5,-443.0,-442.5,1080.75,-1679.75,8
986.75,996.5,-706.75,236.5,-150.0,-304.0,1150.0,-1589.75,8
992.25,993.25,-448.75,220.0,87.75,-191.25,1255.25,-1590.0,8
995.5,999.75,-254.0,197.75,352.75,-119.25,1242.25,-1471.25,8
809.75,984.5,-59.5,207.75,660.0,-126.25,1410.0,-1404.75,8
28.75,992.75,232.75,228.25,768.25,-242.25,1639.75,-1399.5,8
-379.0,984.75,334.0,259.5,729.75,-296.25,1723.25,-1353.5,8
-614.0,1000.75,414.75,293.0,714.5,-338.25,1658.25,-1343.75,8
-1014.25,1000.0,551.75,349.5,700.75,-372.5,1576.0,-1278.0,8
-1021.5,968.0,614.25,417.0,438.5,-363.25,1641.75,-1262.25,8
-1028.25,953.5,591.5,467.5,250.25,-323.5,1574.5,-1225.25,8
-1029.75,909.5,504.75,505.5,29.25,-117.0,1436.0,-1130.25,8
-986.5,911.25,436.75,560.0,-721.5,-44.75,1501.0,-1055.75,8
-866.25,941.75,404.75,623.5,-1277.75,-122.75,1579.75,-1006.75,8
-594.5,933.5,259.25,617.0,-1301.75,-86.5,1544.75,-968.5,8
-218.25,883.0,83.0,626.5,-1253.25,-130.0,1224.5,-930.25,8
46.75,858.75,-32.5,633.5,-1264.25,-148.5,832.75,-896.25,8
351.25,803.5,-199.0,574.75,-1262.25,-87.75,523.25,-721.0,8
623.0,680.0,-352.5,492.25,-1285.5,-17.25,363.75,-554.5,8
859.5,540.5,-526.0,408.75,-1244.5,23.75,268.75,-387.25,8
989.25,444.75,-626.5,360.75,-1174.0,-48.0,313.5,-287.75,8
995.25,354.75,-703.25,312.5,-1034.5,5.5,262.0,-60.0,8
982.5,198.25,-821.75,234.25,-634.25,123.0,-5.75,125.75,8
973.0,81.0,-889.25,161.0,-27.25,314.0,-338.5,243.0,8
1000.5,-72.0,-1002.0,83.0,417.0,508.25,-535.0,394.25,8
1003.25,-194.25,-1009.5,9.5,291.0,524.5,-387.25,480.5,8
1007.75,-282.0,-1006.25,-43.5,303.75,545.0,-301.5,540.25,8
1008.0,-364.25,-1019.0,-63.0,312.0,566.25,-214.75,498.5,8
999.25,-324.75,-1006.0,-24.25,262.75,589.5,96.25,441.25,8
1001.5,-278.75,-932.0,-15.75,191.5,648.75,369.5,410.75,8
989.75,-217.0,-888.5,-28.0,181.75,746.25,537.0,418.0,8
980.5,-208.5,-828.25,-74.0,201.0,837.25,582.25,520.25,8
987.0,-240.0,-737.5,-128.5,2128.5,833.5,490.5,614.5,8
995.5,-260.25,-634.5,-166.5,2038.25,719.25,341.75,719.75,8
997.75,-373.25,-599.0,-224.5,1906.25,581.5,183.75,791.0,8
1000.75,-417.75,-567.0,-256.25,1868.5,510.25,62.25,856.5,8
995.0,-447.5,-507.5,-262.75,1857.0,650.0,91.75,913.0,8
930.25,-469.25,-423.5,-239.5,1735.25,921.25,96.0,925.5,8
864.5,-471.25,-314.0,-227.5,1644.25,1087.0,83.5,967.25,8
793.5,-477.25,-223.5,-215.75,1591.5,1034.75,193.0,1003.75,8
732.0,-484.0,-174.75,-203.25,1554.75,925.0,351.0,1048.75,8
658.5,-486.5,-136.5,-194.0,1484.25,772.25,326.5,1043.0,8
603.75,-456.0,-62.25,-182.75,1256.75,705.25,17.0,1024.5,8
531.75,-457.0,-37.0,-213.5,944.25,729.0,-415.75,1027.25,8
440.0,-449.0,-49.0,-216.25,849.0,664.0,-732.5,1009.0,8
354.0,-449.0,-45.75,-207.75,887.25,540.0,-742.5,980.75,8
251.75,-497.25,-98.0,-196.75,857.25,297.25,-648.5,971.75,8
147.5,-528.25,-131.5,-174.25,815.5,197.75,-592.75,989.75,8
58.25,-535.75,-120.5,-161.0,756.25,48.25,-585.5,961.25,8
5.5,-530.75,-105.0,-148.0,756.0,-84.0,-420.5,974.0,8
-52.25,-648.5,-82.75,-156.75,942.75,-28.0,-134.25,1244.25,8
-109.75,-990.0,-61.0,-387.75,1581.25,588.25,-58.0,1666.75,8
-309.25,-1001.0,-19.25,-1017.75,1450.75,1185.0,48.25,1645.75,8
-1020.25,-993.75,175.75,-1011.0,1419.0,1215.25,294.25,1605.75,8
-1014.5,-987.25,805.25,-1009.75,1367.25,1197.0,549.0,1608.25,8
-1010.5,-1003.25,997.25,-1023.5,1310.75,1159.5,262.5,1596.0,8
-1009.75,-999.5,1003.25,-1023.25,1457.5,1105.5,49.0,-400.75,8
-1021.75,999.25,1006.0,-1035.5,785.25,1030.25,10.75,-447.25,8
-1010.75,993.75,996.75,-1040.25,-188.25,1003.75,281.75,-488.0,8
-1010.75,992.25,995.75,-1028.25,-416.0,1008.0,655.0,-481.5,8
-1021.0,1005.5,1008.0,-1029.5,-439.5,1005.75,697.25,-466.25,8
-620.0,1000.75,994.5,-1022.25,-1596.25,122.5,488.25,-462.25,8
-111.0,991.75,622.5,-405.0,-2523.5,-767.75,241.0,-495.5,8
342.5,992.75,270.5,210.5,-2555.0,-970.0,-428.0,-3.25,8
696.5,997.25,-700.5,929.0,-2541.5,-985.75,-1326.5,218.5,8
980.25,1003.0,-970.5,992.75,-2496.75,-910.0,-1730.25,815.0,8
1008.75,496.25,-1020.5,996.25,-2447.5,-890.0,-1721.25,1280.75,8
1010.25,49.25,-1022.0,1004.5,-2473.5,-891.0,-1611.75,1254.0,8
1008.0,-446.75,-1016.75,998.25,-2545.25,-852.75,-1405.0,1211.0,8
1007.0,-998.25,-1014.5,1009.25,-2644.5,-847.25,-1220.25,1146.25,8
1020.25,-993.25,-1009.75,1009.0,-2728.5,-899.25,-1042.5,1105.0,8
1006.0,-993.0,-1019.25,1008.5,-2697.25,-945.0,-834.5,1070.25,8
993.0,-999.25,-1024.5,1003.25,-2713.0,-924.75,-763.75,1056.25,8
998.75,-1002.25,-1023.0,997.25,-2754.5,-962.75,-795.25,1048.75,8
990.5,-1004.5,-1027.5,989.25,-2612.0,-1061.0,-824.25,1075.5,8
984.5,-1008.25,-1025.75,973.5,-1406.0,-1042.0,-854.5,1105.5,8
974.0,-1002.0,-1007.25,971.25,-470.0,-963.0,-882.25,1110.75,8
978.75,-1011.0,-1002.75,964.0,-478.75,-953.0,-796.0,1082.75,8
983.75,-1022.25,-1016.25,962.0,-511.75,-841.75,-625.25,1043.25,8
976.0,-1009.25,-1018.0,987.0,-523.75,-630.0,-519.25,1034.0,8
987.0,-1003.75,-1009.25,987.25,-507.25,-475.25,-510.75,1042.75,8
983.75,-997.75,-997.5,991.0,-525.0,-436.25,-618.75,1088.0,8
915.0,-995.0,-996.75,1006.5,-591.0,-445.25,-850.5,1092.5,8
828.5,-986.0,-997.0,1000.75,-706.75,-481.5,-1027.25,1078.0,8
743.75,-988.5,-981.75,1015.5,-817.0,-528.0,-994.75,1057.75,8
664.25,-982.0,-986.5,1017.5,-883.25,-554.5,-671.0,1016.5,8
585.25,-992.25,-999.0,1020.5,-983.0,-459.0,-348.25,987.25,8
524.0,-999.75,-897.75,1014.5,-948.25,-330.75,-256.75,822.0,8
464.5,-976.75,-788.0,997.5,-813.25,-316.25,-353.75,771.5,8
408.0,-992.75,-707.25,990.25,-683.5,-264.5,-470.0,664.25,8
361.25,-914.5,-586.0,921.5,-937.5,-330.5,-444.25,556.5,8
307.75,-848.0,-467.25,851.0,-897.0,-435.0,-292.0,307.0,8
259.0,-993.25,-329.25,773.5,-775.5,-578.75,-630.75,332.5,8
200.75,-997.0,-400.25,697.5,-655.75,-1208.0,-1066.75,931.5,8
-448.75,-1011.0,-995.0,995.0,-1058.25,-955.5,-1186.5,949.0,8
-998.0,-991.0,-1005.0,995.25,-672.0,-721.25,-1254.25,943.25,8
24.75,-996.75,-1003.25,991.25,-498.5,-481.25,-1330.0,926.25,8
-58.75,-982.5,-999.0,988.25,-533.5,-301.0,-1436.25,873.75,8
-982.25,-990.0,-990.25,965.5,869.75,-175.25,-1553.25,826.5,8
-595.0,-1005.75,-988.0,985.25,-1379.5,-151.0,-1600.75,799.5,8
1006.5,-990.25,-996.0,984.75,-1653.25,-180.25,-1589.25,763.75,8
1005.75,-574.0,-988.5,993.0,-1737.0,-167.75,-1556.0,-62.5,8
1008.75,373.0,-983.25,1012.5,-1363.25,-322.75,-1517.0,-263.0,8
1005.0,910.5,-992.5,1001.0,-1006.75,-443.5,-1500.0,-1310.5,8
995.75,1001.75,-997.75,989.75,-1000.25,-601.75,-1477.0,-1420.75,8
1001.0,1012.75,-1007.5,972.75,-1004.25,-798.5,-647.0,-1442.0,8
997.0,1013.0,-672.0,985.25,-1199.75,-980.0,-634.5,-1450.25,8
999.75,1010.25,-362.0,991.5,-1593.5,-1086.25,184.25,-1464.25,8
1001.5,1005.5,319.25,991.75,-1807.25,-1087.0,426.0,-1514.25,8
997.0,997.0,576.25,981.5,-1651.5,-989.75,707.25,-1545.75,8
905.0,996.75,998.25,405.0,-843.0,-885.25,714.0,-1557.25,8
131.75,996.25,987.5,-553.25,858.25,-795.75,738.25,-1519.75,8
-799.5,989.0,979.5,-1012.0,906.0,-428.75,768.25,-1501.5,8
-996.25,992.0,985.5,-1003.25,787.0,-92.75,786.25,-1500.25,8
-1008.0,1003.0,994.5,-1013.0,597.5,720.75,813.75,-1495.75,8
-1009.25,999.0,988.25,-1016.5,403.25,835.5,837.5,-1541.0,8
-998.75,1001.5,998.75,-1013.0,168.5,737.5,836.5,-1551.25,8
-1002.5,1002.5,1007.75,-1006.75,42.0,612.0,822.25,-1427.5,8
-1005.75,862.75,997.0,-1016.0,151.75,507.75,826.0,-1268.0,8
-1008.25,531.0,991.5,-1014.0,251.25,478.5,816.0,-953.75,8
-1009.25,177.5,988.25,-999.75,286.75,474.25,795.0,-784.75,8
-1011.25,-75.0,993.0,-1006.25,300.25,549.75,802.75,-559.75,8
-1006.25,-290.75,996.5,-1013.0,390.75,692.25,851.5,-371.0,8
-1015.5,-439.75,1005.0,-1015.0,521.5,752.0,887.25,-247.5,8
-1016.0,-545.0,994.25,-1016.75,583.0,775.5,914.0,-48.75,8
-1019.0,-643.25,987.25,-1021.75,451.75,769.5,957.25,30.0,8
-1026.25,-764.0,996.75,-1013.75,516.75,674.0,1007.75,277.0,8
-1023.5,-964.25,992.75,-1013.0,943.5,663.75,1078.25,643.75,8
-1020.25,-1012.0,989.75,-1013.0,1469.25,747.5,1132.0,966.25,8
-1009.0,-1012.25,946.5,-1002.0,1866.75,926.5,1203.25,1017.0,8
-554.5,-1013.25,303.0,-1002.75,1799.0,1054.25,1266.5,1087.25,8
990.0,-998.25,-479.5,-1009.75,1167.5,1120.0,1204.75,1111.75,8
990.75,-994.0,-996.5,-1009.75,166.25,1189.75,1211.75,1134.75,8
987.25,-971.75,-994.25,-1017.25,-265.0,1203.5,1256.25,728.25,8
991.5,83.75,-997.25,-1008.5,-339.5,1192.75,1270.0,-768.25,8
993.0,1018.25,-997.5,-1006.5,-1538.25,1088.75,1281.0,-834.75,8
994.75,1024.0,-1011.0,-981.5,-1845.75,961.0,1289.5,-813.75,8
984.25,1020.0,-1004.25,-658.75,-1237.75,916.5,1287.25,-783.5,8
990.25,1017.0,734.5,-767.25,189.0,922.75,1271.5,-731.75,8
-1004.75,1008.0,992.75,-1011.5,1388.25,931.25,1225.0,-694.25,8
-1009.0,1005.5,985.75,-1015.0,1407.25,974.75,1176.25,-662.75,8
-1011.25,1004.0,990.5,-991.25,1392.75,989.0,1144.5,-693.75,8
-1009.25,1008.5,993.75,-309.5,-578.75,-5.25,935.75,-233.25,8
-630.0,-994.0,984.0,342.75,-640.5,-1358.75,-881.5,1247.0,8
981.0,-991.0,-278.75,760.25,-790.0,-1572.75,-927.0,1216.75,8
995.75,-985.5,-1040.0,953.75,-907.5,-1585.75,-963.25,1208.0,8
985.25,-997.25,-1074.25,751.0,-930.0,-1462.5,-977.0,1204.25,8
-16.75,-988.75,-758.0,543.75,-887.75,-1231.75,-990.0,1174.25,8
-1004.25,-999.5,107.25,263.75,-722.5,-934.0,-1005.25,1109.5,8
-1013.0,-1002.5,925.5,66.75,1082.25,-768.75,-1031.5,1058.25,8
-1020.0,-1004.5,939.25,-106.25,1077.75,-689.5,-1068.75,1028.5,8
-1013.25,-1014.0,969.5,-116.0,1135.75,-691.5,-1104.0,1010.25,8
-1015.25,-1010.25,1001.25,-101.25,1136.5,-916.0,-1117.0,973.5,8
-1016.25,-1009.5,1022.75,3.0,1174.25,-1126.25,-1146.0,929.25,8
-1000.25,-1010.5,1026.75,137.25,1344.75,-1264.25,-912.5,924.25,8
-1001.0,-1007.75,1034.5,283.5,959.5,-1321.75,-576.25,942.0,8
-997.75,-976.75,1050.75,465.25,195.75,-1375.5,-370.25,954.75,8
-998.25,-309.25,1033.5,628.25,-422.75,-1386.0,-181.0,460.25,8
-1001.25,369.25,1020.25,816.25,-389.75,-1315.25,-45.25,-104.5,8
-1008.5,884.0,1017.75,993.75,-407.25,-1192.25,111.75,-665.0,8
-1005.5,982.5,1040.0,1001.25,-509.75,-1131.75,256.5,-1046.75,8
-1009.0,979.75,1061.25,1002.25,-548.5,-1079.75,367.25,-1058.0,8
-1014.75,981.5,1061.0,1005.0,-761.5,-980.0,512.0,-1042.0,8
-1011.25,983.0,1067.25,994.75,-990.25,-1018.75,490.75,-1049.0,8
-534.75,980.0,1054.0,1014.5,-992.25,-1144.0,490.0,-1037.75,8
342.0,991.25,700.0,1022.75,-987.0,-1127.75,496.25,-989.75,8
992.75,1010.0,330.0,1018.5,-986.75,-838.75,520.25,-976.5,8
994.5,1001.0,37.0,1007.5,-991.75,-463.75,525.25,-982.0,8
994.5,989.25,-197.5,990.75,-936.0,-240.0,469.0,-990.75,8
1002.5,1002.5,-394.25,978.0,-434.25,5.5,417.25,-991.0,8
996.75,1009.5,-569.75,853.0,-33.25,322.5,356.5,-871.5,8
998.5,1006.25,-726.25,758.75,283.75,429.25,350.75,-670.75,8
998.0,1002.75,-828.5,679.25,-980.0,507.75,281.75,-525.5,8
989.0,1000.0,-904.5,597.75,-1296.75,429.5,116.5,-434.0,8
988.0,1003.25,-963.5,508.0,-1219.0,323.25,-116.75,-338.25,8
989.25,993.5,-1020.5,421.75,-1187.25,262.0,-352.5,-299.0,8
994.0,992.0,-1052.0,378.75,-1159.25,151.25,-566.25,-248.25,8
992.5,1001.5,-1047.5,334.75,-1142.0,98.25,-654.5,-206.75,8
987.5,999.75,-1038.5,275.5,-1007.0,82.25,-747.75,9.0,8
993.75,152.75,-1033.0,60.75,-603.25,617.25,-701.5,1095.25,8
984.0,-1003.5,-1028.5,-975.75,205.75,912.25,-364.75,1075.0,8
977.0,-1014.25,-1039.5,-1035.75,1006.0,870.25,578.0,1053.25,8
-1015.75,-1018.75,-37.0,-1029.0,1008.25,742.0,1145.5,1037.5,8
-1010.75,-1010.5,993.0,-1016.5,998.0,633.75,1562.25,-975.75,8
-1008.75,1006.25,988.75,-1007.0,999.75,660.25,1923.5,-969.75,8
-1005.75,1007.5,995.0,-993.0,995.75,753.25,1990.5,-981.25,8
-993.25,1014.25,984.5,-987.5,1006.5,794.75,1588.5,-992.0,8
-987.75,1019.25,993.75,-994.25,1005.25,789.25,791.5,-1024.75,8
-582.25,1023.25,336.75,-993.0,997.75,-87.0,270.5,-1035.75,8
305.0,1027.0,-473.75,-770.75,380.5,-908.0,58.25,-1035.0,8
1001.75,1012.75,-943.0,10.5,-419.25,-1179.0,-854.75,-528.75,8
994.75,1012.0,-1019.0,565.25,-966.0,-1166.0,440.25,-477.75,8
1004.75,1014.25,-1021.0,978.25,-990.5,-1125.25,232.75,342.0,8
1002.25,-71.5,-1007.25,975.25,-998.75,-1061.0,216.5,844.0,8
1008.5,-129.0,-1002.25,983.5,-760.0,-1014.75,178.25,1015.0,8
1004.0,-873.0,-1011.25,990.0,-494.5,-971.75,149.75,1032.5,8
990.75,-986.5,-994.25,992.25,-146.75,-964.0,154.0,1023.25,8
990.5,-989.0,-990.25,1001.25,111.5,-989.25,165.5,1017.75,8
996.5,-987.75,-992.25,997.0,350.25,-1000.25,149.5,988.25,8
1002.0,-983.5,-1003.5,1008.0,588.5,-967.0,147.25,950.5,8
1011.5,-995.5,-1003.5,1013.25,856.75,-911.25,142.75,898.25,8
995.25,-993.5,-1002.0,1014.5,1012.5,-771.0,129.75,836.75,8
999.5,-994.25,-1018.25,1017.5,1012.5,-662.0,128.75,748.75,8
1010.5,-994.75,-1006.5,989.75,1023.25,-663.0,114.25,682.25,8
992.5,-997.0,-1007.0,984.0,1019.25,-698.5,-207.25,688.75,8
990.25,-995.75,-1017.75,967.5,1015.75,-738.0,-644.75,739.0,8
983.75,-984.5,-1010.0,936.5,1026.5,-766.75,-1115.0,812.0,8
985.0,-991.0,-1013.5,949.25,1020.25,-821.25,-1593.5,861.0,8
982.25,-996.25,-1025.75,955.5,1024.0,-850.5,-1926.75,913.0,8
987.5,-1000.0,-1027.5,979.25,1038.25,-796.25,-1925.25,951.0,8
1004.75,-1004.25,-1024.5,990.0,1046.5,-729.25,-1909.25,975.5,8
998.5,-998.5,-1022.25,990.25,992.0,-704.25,-1912.25,993.5,8
996.0,-998.0,-1025.0,997.25,909.5,-624.0,-1934.0,1016.0,8
996.75,-1000.25,-1015.75,994.5,824.25,-413.5,-1951.25,1055.25,8
943.75,-1009.25,-946.25,1000.0,770.25,-221.0,-1959.0,1045.25,8
808.5,-1006.75,-839.0,997.75,849.25,-91.5,-1958.75,1057.5,8
708.25,-998.25,-684.0,1005.25,930.75,-34.5,-1826.0,965.0,8
598.75,-944.75,-578.5,936.5,1054.0,-45.5,-1728.0,961.75,8
495.25,-859.5,-474.25,805.75,1124.25,-95.75,-1607.25,846.75,8
408.5,-725.75,-362.75,680.5,1189.0,-98.0,-1542.0,838.0,8
315.0,-682.5,-284.75,571.0,1222.0,-66.25,-1457.25,758.75,8
230.75,-550.25,-186.0,460.0,1170.25,17.75,-1382.25,724.5,8
153.5,-504.0,-105.25,353.0,1122.5,120.75,-1307.5,646.25,8
101.5,-403.25,-20.0,269.5,1007.75,116.25,-1257.0,565.0,8
24.75,-362.5,44.0,170.25,885.5,143.0,-1195.75,468.75,8
-24.25,-263.5,119.5,87.25,758.5,185.0,-1143.5,368.0,8
-79.5,-220.0,169.75,0.0,639.5,199.75,-1111.0,294.25,8
-125.0,-172.0,217.75,-75.25,606.0,256.5,-1063.5,165.0,8
-170.5,-119.0,262.5,-142.5,652.0,257.5,-1016.5,132.0,8
-193.5,-59.75,299.75,-186.0,730.0,225.5,-954.0,59.75,8
-214.5,9.75,339.5,-230.5,885.5,149.75,-913.25,12.25,8
-249.25,44.75,369.0,-293.0,1062.75,7.75,-855.0,-46.75,8
-276.75,87.75,393.25,-326.5,1242.75,-15.75,-830.0,-85.25,8
-307.0,97.75,410.5,-371.0,1484.5,84.25,-817.75,-110.25,8
-330.5,147.25,433.0,-409.75,1692.75,113.75,-679.25,-130.75,8
-358.0,169.25,444.25,-435.5,1925.25,148.75,-434.5,-143.5,8
-359.75,201.5,470.75,-443.5,2128.25,246.75,-256.25,-180.75,8
-362.75,221.5,485.0,-464.25,2279.75,270.5,-139.75,-218.25,8
-384.75,251.0,480.75,-482.0,2429.75,231.75,118.25,-280.25,8
-387.75,271.5,514.0,-462.75,2506.0,161.5,501.75,-318.5,8
-380.75,300.5,545.25,-444.75,2563.75,89.75,946.0,-372.75,8
-377.5,321.0,555.0,-450.75,2562.5,74.25,1271.0,-423.25,8
-378.5,324.0,542.5,-449.25,2586.5,75.5,1442.5,-555.25,8
-378.75,161.75,542.0,-416.0,2651.0,167.0,1439.25,-586.25,8
-364.0,-991.25,560.0,-378.75,2692.5,325.25,395.75,-514.5,8
-361.25,-982.0,546.75,-384.25,2651.5,303.75,-278.5,-517.5,8
-366.75,-935.25,491.5,-477.75,2362.75,76.25,1588.5,-310.25,8
-385.5,1006.0,375.5,-637.0,1951.5,-187.75,1382.5,55.0,8
-395.0,1008.75,304.25,-686.5,1896.25,-488.25,275.5,-14.75,8
-375.25,1007.25,341.75,-611.25,2040.75,-457.25,1463.75,-105.75,8
-369.25,1015.25,333.25,-598.5,2032.75,-365.25,559.0,-73.0,8
-357.0,1009.5,319.25,-564.0,2074.75,-367.0,1282.75,-210.5,8
-335.75,1003.75,322.25,-523.5,2067.5,-341.75,1347.25,-152.25,8
-346.25,1004.5,310.0,-514.0,1985.0,-284.25,1402.75,-161.75,8
-333.0,996.25,308.25,-482.75,1841.25,142.75,1572.25,-195.0,8
-337.75,799.25,306.5,-464.5,1625.5,587.0,1286.75,-221.5,8
-323.25,229.5,322.25,-428.25,1404.75,895.5,1603.75,-274.25,8
-302.75,237.25,310.75,-406.5,1125.5,1221.5,1210.25,-262.75,8
-302.5,-362.0,307.0,-397.0,900.5,1511.0,1425.75,-310.75,8
-294.75,-255.25,279.0,-389.0,725.25,1573.0,1189.0,-363.0,8
-275.5,-710.75,281.25,-337.5,641.5,1609.25,1397.0,-440.5,8
-250.75,-595.5,285.75,-300.75,541.25,1748.5,1247.0,-490.0,8
-254.5,-852.5,262.75,-321.25,414.25,1820.5,1023.0,-522.25,8
-237.75,-841.75,243.5,-322.5,319.75,1659.75,633.75,-400.5,8
-225.0,-937.25,230.75,-317.75,203.5,1463.0,397.5,-345.25,8
-223.5,-971.25,224.75,-300.75,67.0,1194.0,700.5,-385.5,8
-211.25,-940.75,205.0,-275.5,-60.75,974.0,935.0,-329.5,8
-208.25,-1006.0,200.75,-249.0,-141.5,903.75,1034.0,-371.5,8
-186.25,-915.5,197.0,-255.25,-191.25,826.5,937.0,-353.5,8
-199.25,-1006.75,192.5,-239.75,-239.75,797.25,1064.5,-300.5,8
-203.5,-879.75,191.0,-233.5,-213.25,708.25,1118.75,-266.0,8
-191.25,-917.5,178.0,-223.75,-208.5,491.0,1196.0,-212.75,8
-184.0,-805.25,174.25,-211.5,-380.25,228.25,946.25,-151.0,8
-168.5,-810.5,155.75,-207.25,-544.0,-1.5,808.75,-120.25,8
-160.5,-735.75,140.0,-168.75,-660.75,-177.0,802.75,-24.0,8
-153.25,-693.5,152.5,-164.5,-795.75,-245.25,776.5,78.75,8
-135.75,-645.0,150.75,-134.75,-941.5,-386.75,803.0,13.5,8
-142.25,-565.5,140.0,-116.25,-1041.75,-509.75,958.5,41.5,8
-135.25,-552.0,122.25,-115.0,-1110.75,-667.5,1087.5,110.25,8
-129.5,-459.75,110.25,-103.5,-1238.75,-776.75,805.0,210.25,8
-127.75,-451.25,98.5,-90.75,-1316.75,-795.0,769.0,297.75,8
-124.0,-361.25,77.75,-65.0,-1309.5,-778.75,453.75,264.75,8
-117.5,-352.75,78.0,-55.25,-1265.5,-718.0,222.25,195.5,8
-111.5,-285.25,67.75,-41.75,-1161.5,-784.75,358.0,145.25,8
-103.75,-251.25,69.0,-32.5,-1051.75,-831.5,249.25,159.25,8
-101.5,-223.25,56.5,-25.5,-1007.0,-848.0,83.0,98.25,8
-86.5,-168.5,44.25,-13.5,-962.25,-865.5,-237.5,71.25,8
-79.5,-138.5,32.5,1.5,-810.75,-848.75,-606.75,41.0,8
-68.75,-75.25,38.5,22.0,-613.5,-795.5,-737.0,-7.75,8
-59.5,-51.25,44.5,33.0,-501.25,-703.75,-657.75,161.5,8
-65.25,-16.5,38.25,41.75,-574.25,-636.25,-412.75,235.25,8
-56.75,-7.25,32.0,42.25,-833.25,-536.5,-106.0,260.5,8
-63.0,16.5,12.75,13.0,-1263.0,-503.75,142.25,354.75,8
-49.5,31.5,3.75,0.5,-1642.75,-519.75,41.75,275.5,8
-46.5,56.25,6.0,-1.75,-1866.5,-435.75,-370.75,188.0,8
-59.5,70.75,-0.75,0.0,-1893.5,-331.75,-519.75,114.0,8
-59.25,86.5,-7.75,0.25,-1902.25,-244.75,-404.5,165.75,8
-59.75,103.25,10.5,5.5,-1905.5,-205.25,-370.75,-7.25,8
-55.5,106.25,13.75,18.25,-1907.5,-200.25,-601.25,-97.5,8
-55.75,131.0,20.5,20.25,-1913.0,-170.25,-715.75,86.0,8
-37.25,146.25,40.75,24.25,-1894.0,-132.5,-724.25,-151.25,8
-33.5,172.5,49.25,48.75,-1813.25,-124.5,-776.5,-356.25,8
-35.0,173.5,59.5,72.75,-1739.0,-150.0,-834.0,-359.75,8
-25.0,114.5,64.25,91.75,-1695.0,-122.75,-1005.5,-381.5,8
-24.75,-991.0,53.5,134.75,-1643.25,-540.5,-2159.75,882.5,8
-123.5,-1003.0,-701.25,422.5,-2813.0,-1177.75,-1926.5,1054.5,8
-186.5,-1007.0,-1014.25,990.25,-3006.0,-1095.75,-1697.0,1010.25,8
994.0,-1001.25,-999.75,1001.75,-2907.5,-1017.25,-1663.75,1037.25,8
986.75,-1002.75,-990.5,1002.75,-2755.25,-907.0,-1691.0,1042.75,8
1002.25,-992.75,-1007.0,1006.25,-2683.75,-665.5,-1729.0,836.5,8
1007.75,95.25,-1001.5,984.0,-2570.75,-449.75,-1736.0,-1113.75,8
994.5,996.75,-990.0,984.75,-2195.0,-393.5,-1663.75,-1024.75,8
997.75,1004.75,-991.25,977.75,-1942.25,-466.5,-1544.75,-987.75,8
991.75,1010.5,-988.75,976.75,-1878.0,-569.75,-1066.0,-1063.75,8
993.0,1007.25,-894.0,991.75,-1706.75,5.0,7.25,-1140.75,8
464.5,996.5,-224.5,833.5,-345.0,838.75,-115.25,-1153.25,8
-325.0,977.0,71.75,-294.0,556.5,1218.75,120.75,-1017.75,8
-1000.25,981.25,520.0,-736.0,682.0,1150.25,156.5,-763.5,8
-1014.25,979.75,739.5,-1013.0,763.75,1072.25,474.25,-835.5,8
-1012.5,982.5,985.25,-1010.5,817.5,976.75,737.5,-988.25,8
-1002.5,990.75,990.0,-999.5,941.5,892.0,828.75,-1210.5,8
-998.0,971.25,997.5,-1004.25,1076.25,814.75,793.75,-1249.75,8
-997.5,982.25,999.5,-999.0,1166.0,760.25,746.5,-996.0,8
-993.0,992.25,1012.5,-1012.5,1265.0,832.0,789.5,-825.25,8
-1012.5,1003.25,1018.25,-1010.5,1369.0,974.25,1119.0,-467.5,8
-1012.0,1015.25,1024.5,-1001.75,1469.25,1045.25,1581.0,-745.0,8
-995.25,808.0,1016.75,-1017.25,1445.25,1070.75,2017.0,-642.5,8
-1006.75,783.5,992.75,-1024.0,1287.25,1071.25,2083.0,-571.25,8
-1005.25,675.75,991.5,-1022.5,1144.25,1099.75,2065.5,-360.25,8
-1006.5,684.25,1009.0,-1007.25,1038.25,1088.25,2022.25,-189.75,8
-1001.25,534.0,1006.75,-1005.75,1032.75,1048.75,1960.75,-133.0,8
-998.25,438.0,1003.75,-1008.0,1027.5,1097.0,1927.25,-137.25,8
-1005.25,375.5,1005.75,-1016.25,1083.0,1083.75,1938.25,-302.75,8
-1012.0,214.5,993.25,-1027.25,1083.0,1020.5,1945.25,-223.0,8
-1011.5,171.5,997.0,-1033.75,1041.75,1025.5,1970.0,-180.75,8
-1009.5,27.75,994.75,-1028.0,1039.5,1046.25,1635.75,-162.5,8
-1010.25,9.75,991.75,-1013.0,1169.75,1011.25,1040.25,-394.0,8
-1003.25,-90.25,1003.5,-1010.25,1201.0,998.75,687.0,-448.5,8
-1004.25,-94.25,985.75,-1020.75,1280.25,988.25,560.75,-181.5,8
-996.25,-129.25,974.25,-1027.5,1399.0,1020.75,422.0,177.75,8
-870.25,-146.75,984.75,-1024.0,1643.25,1005.25,411.0,215.25,8
-778.0,-160.25,958.75,-1019.0,1928.5,952.5,400.0,231.75,8
-681.5,-237.75,836.75,-1011.25,1829.75,918.75,340.75,680.75,8
-626.25,-362.0,690.5,-1007.25,1639.5,1028.25,322.25,1108.75,8
-566.5,-500.0,592.75,-890.75,1584.5,1090.5,293.5,1136.0,8
-458.25,-379.5,604.5,-706.25,1471.75,1007.5,310.25,1166.0,8
-306.5,-201.25,620.25,-522.25,1375.75,923.5,164.5,1170.5,8
-213.0,-168.25,571.75,-423.25,1240.25,831.0,177.25,1160.0,8
-91.75,-46.25,609.5,-251.0,1143.5,658.75,230.25,1203.25,8
3.5,35.5,586.25,-175.25,1094.75,554.5,219.25,1201.0,8
36.5,-36.5,504.25,-108.75,1018.0,515.5,208.5,1202.75,8
121.5,-11.5,454.75,-25.0,951.25,434.25,16.75,1201.75,8
133.25,-68.25,362.0,21.0,870.5,385.5,-144.5,1123.5,8
136.75,-115.75,280.5,100.25,760.75,315.25,-206.75,906.0,8
147.0,-150.5,189.25,153.0,643.0,319.25,-251.25,733.75,8
164.0,-169.5,146.5,217.25,572.5,323.75,-227.25,617.5,8
220.5,-133.5,141.75,286.25,604.0,342.75,-208.75,546.5,8
257.0,-142.75,135.75,360.75,615.5,332.75,-385.25,404.0,8
267.75,-145.25,68.25,408.0,528.75,253.25,-903.75,280.5,8
260.0,-186.5,-16.25,432.5,435.5,196.0,-1258.5,214.5,8
273.0,-197.5,-44.0,479.5,315.0,91.75,-1097.75,141.5,8
279.75,-220.75,-93.5,494.75,103.0,-8.5,-876.5,-13.0,8
303.5,-216.75,-138.0,514.0,-41.25,-122.75,-546.5,-291.75,8
295.75,-247.0,-237.75,532.75,-303.0,-264.25,-71.75,-520.75,8
259.0,-305.25,-320.25,540.75,-674.5,-339.25,501.0,-695.5,8
270.5,-288.25,-330.5,555.0,-998.75,-333.75,894.25,-898.5,8
288.0,-265.0,-312.0,574.5,-1331.0,-324.25,1073.25,-1121.0,8
282.25,-251.25,-323.0,597.0,-1639.0,-343.25,1110.75,-1107.25,8
271.5,-266.0,-353.0,600.0,-1743.25,-284.75,1140.25,-988.5,8
304.75,-211.75,-293.5,593.0,-1700.75,-261.5,897.75,-1053.25,8
319.25,-206.25,-329.0,576.75,-1513.25,-327.25,605.25,-985.0,8
283.5,-222.0,-368.0,578.75,-1455.0,-259.25,391.75,-836.25,8
319.25,-162.75,-295.0,594.25,-1416.0,-108.0,166.0,-802.25,8
339.25,-164.25,-281.25,585.75,-1419.25,-29.5,-97.0,-854.5,8
321.25,-191.5,-309.5,576.75,-1345.5,52.75,-258.5,-871.75,8
301.75,-195.5,-334.5,576.5,-1276.0,172.0,-343.5,-972.0,8
297.75,-195.25,-334.25,570.5,-1240.0,259.75,-649.75,-1091.25,8
268.25,-210.25,-399.75,531.0,-1193.75,238.75,-1018.25,-1110.0,8
150.75,-277.25,-568.75,489.0,-1196.25,189.5,-1252.0,-1144.0,8
87.75,-322.0,-671.5,472.5,-1049.25,242.5,-1329.5,-1170.75,8
73.0,-304.75,-675.0,462.0,-818.25,335.0,-1084.5,-1225.25,8
85.75,-259.75,-619.0,469.5,-600.75,474.0,-663.25,-1200.0,8
145.0,-187.75,-503.75,467.5,-361.75,633.25,-393.25,-1241.75,8
202.0,-131.0,-405.5,450.5,-137.0,708.5,-280.25,-1296.0,8
227.75,-107.0,-342.5,420.0,70.75,708.25,-295.75,-1311.0,8
187.5,-110.75,-354.75,385.75,304.25,705.75,-445.5,-1316.0,8
171.25,-87.25,-340.75,371.0,404.0,645.5,-503.75,-1287.5,8
158.0,-99.75,-352.75,342.0,57.5,509.5,-553.25,-1270.5,8
140.25,-98.5,-304.5,351.75,-326.25,582.5,-404.25,-1061.25,8
216.25,-3.75,-101.5,375.75,-329.75,621.25,-138.75,-940.75,8
256.75,48.0,-23.75,354.0,-209.75,500.75,-58.0,-872.75,8
250.0,73.5,-17.75,303.75,-461.75,316.5,-177.25,-818.25,8
189.5,29.0,-88.75,241.25,-781.25,-15.5,-232.25,-779.0,8
121.0,-49.25,-204.0,201.75,-917.25,-382.25,-43.25,-677.5,8
81.25,-87.0,-238.5,202.25,-1029.0,-483.5,-141.5,-613.25,8
63.75,-91.75,-239.75,184.0,-1172.0,-494.25,-291.25,-511.25,8
80.75,-76.75,-232.5,155.75,-1206.75,-505.0,-95.5,-416.75,8
74.5,-78.0,-244.0,148.25,-1170.75,-523.75,-93.5,-336.5,8
78.75,-56.0,-219.75,132.75,-1033.25,-526.25,-339.25,-286.75,8
100.75,-30.0,-192.25,111.5,-932.0,-578.25,-411.75,-255.0,8
103.25,-42.75,-200.5,108.0,-938.5,-649.5,-437.25,-151.75,8
120.5,-42.75,-174.75,101.25,-924.25,-694.75,-780.25,-133.25,8
117.25,-53.5,-176.0,101.75,-890.25,-776.25,-1181.0,-143.25,8
107.75,-55.0,-146.5,115.0,-887.25,-822.0,-1069.25,-57.0,8
134.25,-15.25,-72.0,113.25,-916.25,-908.25,-1031.75,139.25,8
140.75,23.25,-38.25,107.75,-1037.5,-1026.25,-1000.25,302.0,8
162.75,77.25,24.75,103.5,-1117.5,-1091.25,-906.0,392.75,8
175.0,92.75,98.25,104.0,-1001.0,-1140.25,-826.0,531.25,8
166.75,112.5,154.0,114.25,-857.25,-1181.25,-654.25,590.75,8
165.75,-39.75,179.25,68.0,-432.0,-997.25,-577.0,1072.75,8
87.25,-993.25,322.75,-547.0,628.0,-234.25,5.25,1232.0,8
-1008.75,-981.25,978.75,-987.5,702.75,-279.5,335.5,-735.0,8
-1007.0,1008.5,973.5,-992.75,1075.0,-279.75,410.75,-651.75,8
-1012.0,1002.0,989.5,-1000.25,1079.75,-244.5,476.0,-606.25,8
-1001.0,997.0,986.75,-999.5,734.0,-238.75,657.25,-601.0,8
-994.0,989.25,985.5,-997.0,528.25,-225.25,987.75,-652.25,8
-997.25,980.5,994.25,-1009.5,697.75,-246.0,1425.5,975.75,8
-995.0,-772.75,697.75,-848.25,342.5,-2231.75,-113.5,1314.75,8
861.75,-991.75,-1011.0,979.0,-764.0,-2258.5,-122.25,1286.5,8
965.0,-989.25,-1006.5,980.0,-657.25,-2249.5,-13.5,1258.5,8
982.0,819.5,-205.0,-441.5,1690.5,-222.25,2049.25,-784.0,8
-1012.0,1012.75,1010.5,-1002.0,2088.5,-125.25,2176.0,-794.5,8
456.0,1022.75,-50.75,-44.5,441.75,5.0,2106.5,-854.25,8
626.25,1012.25,-532.25,-157.0,1778.0,-358.0,1948.5,-884.25,8
713.75,1016.75,-634.0,401.0,367.25,-260.75,1801.75,-862.25,8
1023.0,1006.25,-991.0,943.25,452.25,-1170.5,854.25,442.0,8
997.0,985.25,-972.75,893.75,529.0,-697.0,1719.25,134.0,8
991.5,984.75,-982.5,964.75,693.75,-846.0,-192.75,1079.25,8
987.0,-858.0,-990.0,978.25,888.0,-560.5,-366.75,1001.0,8
996.5,-202.75,-988.0,992.25,795.0,-345.5,-1486.0,995.5,8
994.0,-992.75,-989.25,994.75,703.75,-212.0,-1602.25,958.0,8
995.5,-978.0,-994.5,1009.5,687.25,-112.25,-1548.75,915.75,8
1007.5,-981.5,-1003.5,994.75,658.0,-62.25,-1294.0,1011.25,8
1005.25,-991.0,-1010.25,986.75,620.0,-76.25,-1035.25,1121.25,8
994.0,-991.25,-1017.25,1005.0,521.5,-105.0,-1032.5,1160.75,8
987.5,-992.25,-1010.5,996.25,426.25,-128.5,-1287.25,1169.0,8
983.75,-1009.75,-1011.25,1005.0,277.0,-144.75,-1334.0,1187.25,8
979.5,-1024.75,-1006.75,1005.75,250.0,-137.75,-1072.75,1215.25,8
969.5,-778.75,-995.75,992.5,468.75,-126.5,-643.75,1080.0,8
965.5,-511.25,-993.0,980.0,686.5,-106.0,-241.5,315.75,8
970.5,971.5,-992.75,979.25,780.5,-97.5,187.0,-433.25,8
983.75,894.25,-715.0,983.75,863.5,3.75,391.75,-302.0,8
277.0,977.0,-303.5,982.25,795.25,307.0,807.5,-659.5,8
24.25,986.0,137.25,699.0,1888.25,1729.5,953.5,109.5,8
-822.5,-175.5,558.25,-204.25,2394.0,1681.0,1345.0,11.25,8
-949.25,104.75,774.0,-666.0,2055.5,1562.5,1510.75,-308.75,8
-1003.0,174.25,991.25,-1026.75,1791.5,1431.75,1878.25,-1181.25,8
-997.75,1025.0,990.0,-964.5,518.0,1141.5,1986.5,-1372.5,8
-999.25,1013.25,976.25,-1003.0,1015.75,1240.0,1945.5,-1476.5,8
-993.75,1033.0,974.0,-998.5,1059.0,1193.75,1773.25,-1616.25,8
-1012.75,1022.25,988.25,-987.75,665.25,1176.25,1708.75,-1710.75,8
-1026.25,991.0,980.5,-999.75,261.75,1196.75,1614.5,-1646.25,8
-1035.25,898.25,986.75,-997.5,-56.0,1261.25,1636.5,-1080.5,8
-1026.5,-164.0,994.5,-983.0,-205.25,1320.75,1794.5,359.5,8
-1019.25,-1021.5,994.0,-983.5,-254.5,1405.25,2109.25,411.25,8
-1020.5,-1022.25,992.25,-1002.0,-270.25,1516.0,2253.0,390.5,8
-1008.75,-997.5,997.5,-1006.25,-341.75,1512.0,2210.75,501.0,8
-1003.5,-1005.0,1001.5,-1010.75,-449.75,1413.0,2209.0,507.75,8
-1006.75,-993.75,1001.75,-1027.25,-504.5,1356.0,2091.5,-921.0,8
-1008.5,448.25,994.75,-1024.25,-2560.25,493.25,1802.25,-1393.25,8
-998.25,1004.5,991.0,-948.75,-2542.5,-591.0,1360.0,-1386.75,8
-1002.5,1015.25,997.0,-1020.75,-2512.75,-72.0,1009.5,-1415.75,8
-994.75,1019.25,982.0,-1014.75,-2551.25,299.75,936.0,-1400.25,8
-998.5,1022.0,994.0,-1018.75,-2544.75,523.5,1177.5,-1358.75,8
-1001.5,1023.0,998.75,-1016.25,-2090.5,548.0,1264.0,-1331.5,8
-944.5,1016.5,838.75,-1012.0,-2159.0,332.75,982.5,-1256.5,8
-945.5,1009.25,775.5,-1006.25,-1300.25,576.25,809.5,-870.75,8
-860.75,921.5,657.5,-1008.25,-1419.75,412.75,560.75,-765.5,8
-866.5,802.5,523.75,-1011.25,-947.25,601.0,326.75,-252.5,8
-810.0,299.75,438.25,-1018.75,-831.5,573.25,-13.75,-137.5,8
-776.75,297.0,314.75,-1014.75,-672.5,525.75,-296.0,110.0,8
-734.5,-65.25,220.25,-1014.25,-607.25,556.25,-356.5,239.0,8
-671.0,-102.25,106.5,-1014.5,-612.75,508.25,-287.0,415.75,8
-659.25,-277.25,42.0,-948.75,-636.5,648.25,-47.0,550.0,8
-566.25,-315.75,10.5,-832.25,-618.5,579.5,374.75,495.75,8
-542.0,-351.25,-4.25,-781.25,-566.25,585.5,743.0,610.0,8
-469.75,-423.0,-25.0,-667.5,-469.0,468.75,708.5,633.0,8
-433.75,-382.5,-34.75,-595.0,-274.75,527.0,689.25,805.0,8
-346.5,-414.0,19.25,-475.25,-177.0,567.0,525.5,693.25,8
-273.0,-322.0,47.75,-424.25,-7.0,666.5,382.25,659.75,8
-201.25,-368.5,95.5,-347.75,248.75,797.25,523.75,584.75,8
-96.75,-266.25,176.5,-277.25,413.75,833.75,727.5,548.75,8
-40.25,-273.5,228.5,-226.25,715.0,890.25,939.25,556.25,8
7.25,-226.5,249.75,-161.75,831.75,767.75,1064.0,538.25,8
40.5,-222.0,245.0,-104.75,782.75,658.5,1189.0,581.75,8
78.0,-180.25,262.75,-28.25,655.0,575.5,1323.25,548.5,8
94.0,-123.75,292.5,24.0,591.0,559.75,1397.25,482.5,8
127.0,-123.5,299.5,47.25,514.75,488.25,1324.25,386.75,8
124.25,-86.0,274.25,63.75,587.0,452.0,1326.25,387.75,8
130.0,-117.5,225.75,107.5,678.0,458.5,1287.75,300.5,8
138.0,-79.75,193.0,130.0,830.0,386.25,1251.0,321.5,8
138.5,-106.0,178.75,151.25,885.25,297.25,1154.5,417.5,8
141.5,-133.5,171.5,158.75,839.0,272.75,1091.5,408.25,8
174.75,-148.25,183.25,179.75,858.25,283.25,1104.5,294.75,8
203.75,-124.75,176.0,174.5,927.25,299.0,1114.25,245.75,8
192.75,-246.25,85.0,114.0,1184.25,423.25,1203.75,426.0,8
233.75,-440.25,-41.25,16.0,1543.25,488.75,1122.75,608.25,8
358.25,-470.0,-112.0,-29.5,1851.0,595.75,855.0,644.0,8
604.0,-602.0,-292.75,-169.25,1768.25,838.75,363.0,872.75,8
985.5,-921.25,-673.25,-424.5,1700.25,865.75,30.75,871.0,8
986.0,-897.25,-844.5,-394.0,1735.25,874.25,19.0,943.25,8
975.0,-665.25,-860.75,-310.25,1757.25,794.75,-194.25,950.5,8
987.25,-566.0,-921.75,-246.25,1670.0,589.5,-390.25,907.5,8
996.75,-287.75,-702.5,-82.25,1627.25,192.5,-419.25,665.75,8
1001.0,-129.0,-602.0,-38.5,1767.0,-44.25,-196.0,459.5,8
1022.0,21.5,-618.25,10.25,1946.75,-330.5,85.0,114.0,8
1005.5,187.25,-521.5,75.5,1889.0,-566.5,210.25,-16.25,8
996.25,285.0,-542.75,154.0,1570.5,-787.75,119.25,-247.75,8
988.5,446.25,-654.75,241.25,1125.75,-919.5,-16.0,-467.25,8
981.5,581.25,-736.5,330.75,497.0,-995.75,-220.0,-608.75,8
991.5,709.25,-584.5,424.25,-386.25,-1049.0,-354.25,-719.0,8
980.25,762.25,-464.0,490.5,-733.25,-1040.5,-606.5,-768.5,8
975.0,968.0,-568.75,605.25,-715.25,-1070.5,-703.0,-818.75,8
972.25,1001.75,-498.0,671.5,-772.75,-1022.5,-625.25,-830.25,8
960.0,1007.75,-332.75,739.25,-982.5,-1016.5,-664.0,-876.0,8
966.5,1006.5,-354.25,814.0,-1175.5,-985.5,-632.75,-918.5,8
967.75,998.75,-335.0,903.0,-1280.75,-970.0,-469.0,-806.25,8
977.25,1008.0,-434.75,984.75,-1289.0,-921.75,-299.25,-699.0,8
1018.75,1024.75,-221.75,948.75,-1178.75,-902.5,-338.0,-666.25,8
961.5,1014.0,-48.25,922.25,-1149.0,-963.25,-311.0,-794.75,8
789.25,995.75,57.75,866.25,-1139.0,-945.0,-506.0,-1056.75,8
-59.25,1000.5,371.75,737.5,-1014.5,-981.5,-606.5,-1277.75,8
-441.75,930.25,449.0,644.5,-877.5,-950.25,-783.5,-1174.25,8
-953.5,610.75,709.75,541.5,-713.75,-916.75,-1139.0,-996.25,8
-970.75,588.25,645.25,583.5,-524.5,-932.5,-1267.25,-1497.5,8
-652.75,904.0,444.0,660.5,-425.75,-915.25,-928.25,-1580.0,8
-345.75,994.75,367.25,686.25,-451.5,-909.75,-346.5,-1668.25,8
-75.0,993.75,388.25,713.5,-599.25,-800.5,525.0,-1640.75,8
-456.0,997.25,822.0,634.25,-746.5,-442.25,763.5,-1395.0,8
-1018.0,1006.5,963.25,302.5,-849.5,317.5,854.75,-1381.5,8
-1020.0,993.75,958.0,-370.25,911.5,662.75,883.0,-1407.25,8
-1018.0,992.5,962.75,-1000.5,921.25,697.25,936.0,-1351.75,8
-1023.25,984.5,975.25,-1011.5,1161.75,764.0,958.0,-1414.25,8
-1026.25,989.5,976.25,-1009.75,1484.25,849.75,903.0,-1450.75,8
-1032.75,1002.5,973.0,-1006.25,1041.0,933.5,800.25,-1435.5,8
-1034.5,1000.25,972.25,-1011.75,-10.0,609.75,628.5,-785.5,8
-1040.0,997.0,973.5,-1010.25,-372.75,259.75,443.0,-9.25,8
-1028.75,474.5,969.25,-857.0,-741.25,29.5,-204.5,590.25,8
-1032.0,-118.75,972.25,-587.75,-901.25,-222.5,-945.25,773.0,8
-1026.75,-998.25,516.25,-17.0,-896.75,-610.5,-1432.0,841.0,8
-286.75,-999.25,-197.25,329.25,-716.5,-660.25,-1329.5,990.0,8
-500.0,-1004.0,-166.0,-5.25,-474.25,-365.25,-1339.0,1033.0,8
-962.75,-995.25,-138.5,-116.75,-560.75,-328.75,-1434.75,1059.25,8
-650.0,-995.25,-376.75,-7.0,-840.0,-376.0,-1507.0,1323.75,8
-555.0,-987.25,-453.25,-22.25,-1220.25,-231.5,-1535.5,1477.5,8
-251.75,-976.0,-717.75,231.75,-1383.0,-296.0,-1499.5,1729.75,8
470.25,-989.5,-993.5,481.25,-1355.25,-407.75,-1411.75,2050.75,8
787.25,-996.0,-1003.75,511.5,-1404.75,-620.5,-1560.5,2353.75,8
966.0,-985.5,-1003.0,598.25,-1384.75,-1082.75,-1839.25,2436.5,8
1004.5,-974.75,-999.25,715.5,-1360.25,-1469.25,-2086.75,1838.25,8
1003.25,-973.5,-989.0,881.0,-1533.0,-1546.75,-2236.75,1060.5,8
996.0,-991.25,-978.5,898.5,-1245.5,-1386.5,-2239.75,277.25,8
997.75,-992.25,-978.75,658.5,27.0,-1176.25,-2200.25,-139.0,8
994.5,-994.0,-980.5,400.5,462.5,-1098.75,-2244.75,-244.75,8
994.5,-994.0,-985.25,439.25,477.25,-986.25,-2286.75,-264.75,8
996.5,-987.5,-983.75,387.25,505.25,-584.0,-2245.0,-317.25,8
891.25,-1002.25,-1005.5,292.25,431.75,-144.5,-2128.75,-161.75,8
990.75,-1007.75,-1009.25,471.75,-118.5,215.5,-2069.25,114.75,8
996.25,-1010.0,-1007.75,462.75,271.75,580.0,-2099.25,213.75,8
994.75,-1012.0,-1011.0,361.75,816.5,702.0,-2086.5,492.75,8
981.75,-1010.5,-1005.5,298.5,844.25,778.75,-1948.5,743.0,8
982.25,-1007.5,-935.5,218.0,694.5,965.75,-1682.25,766.5,8
697.5,-1009.25,-735.75,44.0,529.0,1038.0,-1474.5,829.25,8
472.0,-838.0,-644.5,17.5,132.5,1026.75,-1455.75,1017.25,8
498.75,-723.75,-585.0,22.5,-395.25,1017.0,-1309.25,1070.75,8
417.5,-560.5,-533.0,18.75,-656.75,984.0,-1203.0,1132.0,8
449.5,-507.0,-497.25,38.75,-550.25,807.5,-1079.75,1105.0,8
406.75,-412.25,-480.5,83.25,-740.25,425.25,-1089.25,1127.75,8
737.25,-605.0,-651.0,259.5,-1007.0,27.5,-1052.0,1144.25,8
777.75,-512.75,-556.25,93.5,-141.5,-98.0,-730.25,942.5,8
346.5,-182.0,-357.75,-52.0,35.5,-465.75,-686.0,871.0,8
393.75,-153.0,-356.5,46.25,-156.5,-857.25,-702.0,796.0,8
278.75,-17.25,-232.75,-71.25,196.5,-921.75,-558.5,802.5,8
61.25,130.75,-174.75,-39.0,-871.5,-1018.25,-577.5,1387.75,8
344.25,-15.25,-291.25,120.75,-1567.0,-1060.25,-452.75,1641.0,8
396.25,-9.0,-291.25,104.25,-1593.25,-1055.5,-322.5,1727.25,8
626.5,-142.25,-410.25,251.5,-1549.5,-1078.25,-269.25,1724.25,8
728.75,-149.5,-338.25,97.75,-195.5,-895.75,88.0,1366.75,8
390.0,95.5,-165.0,-55.75,-69.0,-864.75,295.75,1298.25,8
441.0,65.75,-193.5,17.75,-401.25,-889.75,406.5,1217.5,8
414.75,117.5,-175.25,23.5,-545.0,-550.0,416.5,1284.0,8
626.0,-16.25,-300.5,209.25,-724.25,-275.0,365.0,1110.5,8
866.5,-131.75,-361.75,183.0,554.0,144.5,559.75,616.75,8
627.5,20.0,-202.75,-52.5,943.75,488.5,785.25,493.75,8
512.75,78.25,-174.5,-21.0,1130.75,579.75,729.75,520.5,8
675.75,-27.75,-286.5,93.0,1092.5,744.5,742.5,517.75,8
659.25,-26.75,-240.5,14.5,926.0,976.0,854.25,314.0,8
639.5,-1.75,-260.5,103.5,808.25,1003.25,759.25,204.75,8
820.25,-121.75,-327.0,159.0,763.75,1048.5,876.5,-62.5,8
487.25,140.25,-30.75,-230.25,868.5,1254.5,1236.0,-421.5,8
-57.0,469.25,231.5,-334.25,1048.25,1099.75,1237.5,-183.5,8
84.5,365.75,131.25,-114.75,1189.5,938.5,1305.5,-117.5,8
-0.5,427.25,225.0,-230.5,1373.0,963.0,1543.25,-144.25,8
-28.25,406.5,148.5,-54.25,624.25,696.5,1509.5,-9.75,8
347.5,176.75,-66.75,131.25,860.75,593.0,1561.25,-56.25,8
375.25,134.25,-83.0,56.0,1779.5,595.25,1618.0,-66.75,8
310.0,185.75,-3.5,-74.5,1895.25,659.0,1759.75,-113.0,8
136.25,270.25,92.5,-158.25,1942.5,636.75,1769.0,-37.0,8
177.0,241.25,55.5,-134.0,1791.5,619.25,1771.75,-204.75,8
83.0,282.5,98.0,-152.0,1491.5,573.0,1720.0,-244.5,8
167.0,203.25,12.25,-30.25,921.25,434.0,1633.75,-214.5,8
238.0,152.75,-11.5,-24.75,989.5,348.0,1613.5,-318.75,8
348.0,48.0,-115.0,102.5,704.0,204.0,1463.5,-418.0,8
484.75,-5.25,-114.5,15.0,1446.5,287.5,1509.5,-678.5,8
349.75,41.0,-87.75,27.0,1599.25,204.25,1373.0,-719.25,8
563.5,-100.25,-233.75,138.75,1651.25,196.0,1371.0,-1002.75,8
468.5,-30.75,-130.75,-14.25,1562.0,264.25,1397.5,-1209.0,8
560.0,-102.5,-268.75,186.25,1501.5,142.5,1168.75,-1248.5,8
812.5,-240.75,-413.0,254.5,1648.25,151.5,1046.25,-1238.5,8
978.25,-398.75,-597.5,458.5,1103.0,-36.5,801.75,-1041.5,8
977.25,-618.75,-735.75,457.5,1508.75,116.25,905.25,-1240.5,8
988.0,-518.0,-592.25,287.25,1239.75,139.0,873.5,-1240.5,8
996.25,-648.25,-734.25,484.5,1078.75,13.0,810.25,-1204.25,8
1006.0,-658.0,-687.25,398.0,1014.0,23.5,744.5,-1114.75,8
1016.5,-782.75,-877.25,661.25,780.75,-262.25,407.5,-835.25,8
1023.75,-993.5,-1008.25,746.75,305.0,-392.25,163.5,-574.75,8
1025.75,-1013.0,-1014.75,928.75,-948.25,-553.75,-88.25,-374.25,8
1019.75,-1013.5,-1012.75,725.5,350.25,-304.75,-98.5,-311.75,8
1017.75,-1015.0,-1021.75,957.25,-1528.25,-964.75,-669.25,199.75,8
1015.5,-1016.25,-1012.0,998.25,-1409.25,-1086.0,-784.75,425.75,8
1011.25,-1007.75,-1012.5,986.25,-1185.75,-1106.75,-898.5,634.0,8
997.5,-1001.25,-1019.25,984.25,-966.5,-1161.0,-1005.25,753.75,8
998.5,-1004.5,-1022.75,990.75,-988.0,-1165.0,-1092.0,822.5,8
988.75,-1011.5,-1034.0,579.5,-1110.5,-1146.25,-1168.0,947.25,8
306.0,-1020.25,-1032.25,-192.5,825.0,-739.25,-1249.25,1077.25,8
-1035.5,-1008.75,631.5,-1006.25,895.25,-81.5,-1245.5,1056.75,8
-1032.75,-1004.25,967.25,-1013.5,990.25,423.75,-1199.25,1062.5,8
-1028.75,-1000.0,956.0,-1006.75,1032.5,608.75,-606.0,1075.5,8
-1032.0,-990.75,964.75,-1008.0,927.25,880.25,98.0,830.5,8
-1023.75,-908.75,962.5,-1005.0,371.5,825.75,342.75,-387.25,8
-1022.75,-106.75,966.5,-888.75,259.0,606.25,229.0,-811.75,8
-1023.5,1006.25,977.25,-701.75,240.5,488.0,171.75,-775.5,8
-1022.5,1003.75,964.75,-674.25,217.5,723.75,81.25,-760.75,8
-1034.0,1001.75,976.25,-1011.0,199.75,926.0,33.5,-745.0,8
-42.0,1004.5,969.5,-1014.25,177.25,891.5,128.5,-749.75,8
972.25,1009.25,289.75,-1016.75,171.25,837.75,271.0,-765.5,8
982.5,1009.5,-200.25,-1014.75,148.25,796.75,436.75,-794.75,8
1002.0,1002.75,-758.25,-982.0,134.25,777.5,621.25,-851.5,8
1046.25,1014.25,-1023.0,-741.75,121.0,779.0,778.75,-835.75,8
1065.25,1010.0,-1020.5,-281.25,110.75,734.25,832.0,-843.0,8
1076.75,1006.25,-1008.5,66.75,-757.5,678.5,857.0,-842.25,8
1079.25,1009.25,-1016.75,246.25,-863.25,651.75,932.5,-952.75,8
1056.75,1001.25,579.0,-401.25,76.25,648.0,1009.75,-1105.25,8
65.75,1002.25,982.75,-1002.5,69.0,679.0,1044.75,-1160.75,8
-991.75,999.25,985.75,-1011.5,53.25,691.25,1092.25,-1227.25,8
-1000.5,1013.75,982.5,-991.0,45.0,730.0,1162.5,-1257.0,8
-1001.0,1008.5,985.5,-994.25,-682.75,757.0,1222.25,-1309.75,8
-1010.5,996.75,981.25,-996.5,-1665.5,773.25,1275.5,-1327.0,8
-1025.25,996.75,973.25,-878.5,-830.0,712.5,1336.25,-1256.5,8
-1035.25,997.5,979.75,-1012.0,-19.5,692.75,1399.5,-1229.25,8
-1041.0,1002.25,976.75,-1010.75,112.5,115.25,1424.0,-1304.75,8
-1037.25,1000.5,988.5,-1017.75,124.0,-105.75,1294.5,-1002.75,8
-1039.25,998.5,990.75,-975.25,141.5,-922.0,420.5,-120.75,8
-1024.5,1002.0,981.25,-511.5,168.25,-977.25,159.25,194.75,8
-1025.0,997.25,982.0,-418.0,208.0,-910.0,-456.0,519.0,8
-1022.0,994.5,736.75,-1.75,249.75,-838.25,-826.25,624.75,8
-1021.25,988.75,800.0,-142.0,274.5,-801.75,-1291.5,652.75,8
-1027.5,520.75,78.25,624.5,321.0,-755.0,-1657.5,632.5,8
-1006.0,-116.5,-275.25,508.0,370.5,-749.25,-1782.75,627.75,8
-1015.0,-114.5,-368.25,664.75,421.5,-721.25,-1852.25,653.0,8
-1014.0,-853.25,-1020.5,1004.75,445.25,-697.25,-2015.75,702.5,8
-265.25,-998.25,-1000.75,990.75,433.25,-690.5,-2157.25,751.75,8
652.5,-999.0,-1002.75,980.5,453.75,-685.25,-2118.75,770.5,8
972.0,-998.5,-993.25,985.0,1296.25,-683.75,-2079.75,735.5,8
982.0,-998.0,-980.25,967.5,2489.5,-684.75,-2022.75,799.5,8
986.75,-985.0,-974.25,964.25,2508.5,-700.0,-1953.5,865.75,8
981.25,-986.0,-978.0,961.75,2528.25,-678.0,-1866.5,944.0,8
976.75,-988.0,-985.75,410.75,2547.25,91.75,-1788.75,981.25,8
503.25,-996.5,-984.75,549.5,2576.0,-447.5,-1744.5,1160.0,8
978.25,-1000.5,-990.5,948.5,1163.0,-555.25,-1694.5,1066.25,8
984.25,-997.0,-993.5,962.0,1028.5,-591.25,-1661.75,939.0,8
984.25,-991.25,-996.5,976.5,351.75,-706.0,-1620.0,756.0,8
991.0,-992.5,-999.75,987.0,999.0,-696.75,-1575.5,683.75,8
1004.0,-1004.75,-1005.0,988.0,471.0,-740.75,-1533.0,699.25,8
1005.5,-1007.75,-1007.5,993.5,2600.75,-59.0,-1479.75,423.75,8
1007.75,-1016.75,-994.5,93.25,2611.25,916.0,-1170.5,-144.25,8
1004.25,-1015.5,-986.75,186.5,2594.5,497.25,-1300.25,147.0,8
1002.75,-1011.0,-995.0,187.75,2565.5,525.0,-1082.25,-124.0,8
1003.5,-1004.75,-939.25,324.0,2525.5,223.75,-1291.5,-1.0,8
1004.75,-1001.0,-1001.5,753.5,2505.0,-74.75,-1421.5,-197.0,8
1003.75,-1012.75,-995.0,449.25,2485.25,386.5,-976.5,-824.0,8
1008.0,-1012.25,-625.5,-7.5,2447.75,541.75,-732.25,-977.0,8
998.5,-1006.25,-612.25,187.75,2403.25,171.75,-928.25,-429.75,8
1005.0,-1002.75,-849.0,401.0,2352.5,114.0,-616.75,-98.5,8
1003.75,-993.5,-729.25,331.5,1873.5,-211.0,-474.5,788.75,8
995.5,-992.25,-997.5,1001.25,269.5,-858.75,-486.25,1414.5,8
976.75,-988.75,-929.5,283.5,2224.0,525.25,841.25,371.25,8
538.25,-703.5,132.0,-427.5,2195.75,407.75,861.25,881.75,8
983.5,-982.75,-998.0,880.75,153.25,-880.75,309.0,1614.25,8
989.5,-973.0,-999.0,984.0,116.0,-800.0,738.25,1328.25,8
997.0,-970.25,-993.0,771.5,90.25,-660.0,854.0,1180.75,8
1003.25,-975.5,-1006.0,806.5,66.25,-1063.25,393.25,1583.75,8
1007.75,-976.75,-998.0,994.5,45.25,-1280.25,288.0,1739.75,8
1004.5,-973.0,-991.25,1000.75,-4.5,-1281.0,256.0,1605.75,8
1007.75,-962.75,-1007.0,997.0,-27.25,-1297.75,226.75,1365.0,8
998.25,-978.0,-1002.75,1010.25,-51.25,-1312.0,210.75,1224.75,8
993.25,-999.5,-997.5,805.0,-72.0,-1338.0,210.0,1049.5,8
1003.75,-992.25,-1002.5,732.5,-102.5,-1330.75,180.5,884.5,8
987.75,-1004.0,-1009.75,-61.5,736.25,-1080.75,160.25,903.75,8
-1006.75,-990.0,-887.0,-437.25,1839.5,-704.5,148.0,1032.0,8
-1007.75,-978.25,117.25,-910.5,1810.0,149.25,342.0,1239.75,8
-1010.0,-982.75,984.25,-986.5,1792.5,481.0,809.75,1072.25,8
-1002.25,-972.25,988.25,-992.25,1760.5,733.0,1472.0,486.5,8
-1008.0,-966.0,992.75,-1013.0,1637.5,718.5,2013.75,-320.75,8
-1014.25,-968.75,993.75,-1002.0,1588.5,725.5,2079.25,-773.0,8
-1014.25,-604.25,991.5,-1003.75,1449.75,718.0,2014.75,-790.25,8
-1011.5,-310.25,1003.0,-1007.0,1406.25,705.0,1829.0,-597.75,8
-1014.5,56.0,1016.5,-1007.5,1359.25,694.75,1651.5,-340.25,8
-1015.25,584.75,1013.25,-1011.5,1286.0,659.5,1519.25,-116.75,8
-1002.5,979.0,1002.5,-988.75,1207.75,626.75,1357.75,-41.0,8
-995.0,1007.25,1004.5,-993.0,1089.5,573.25,1167.5,-111.5,8
-992.0,1005.0,999.5,-876.75,1035.5,394.0,992.5,-277.25,8
-998.5,1008.0,1005.25,-488.75,-62.75,-107.75,786.0,-439.5,8
-1008.75,1008.25,1004.5,-122.75,-1011.0,-543.5,612.25,-619.75,8
-1000.0,1007.0,997.25,11.25,-1023.0,-678.5,574.25,-1007.0,8
-997.25,1001.0,1001.5,96.75,-944.75,-650.5,584.5,-1055.5,8
-579.75,988.5,990.75,6.5,-94.0,-405.25,662.75,-1117.75,8
348.0,992.0,992.5,-55.0,220.0,-180.5,727.5,-919.25,8
987.5,997.0,991.75,-167.75,838.25,125.25,848.25,-586.75,8
993.25,994.25,991.0,-217.0,870.0,261.0,1083.0,-630.0,8
992.5,1004.5,993.25,-287.0,1067.0,428.25,1273.5,-822.0,8
989.5,1010.0,711.0,-335.5,1017.75,526.5,1348.75,-758.25,8
981.25,999.75,435.0,-372.25,925.5,570.25,1328.25,795.25,8
987.0,1000.0,180.0,-411.25,796.75,580.5,1428.5,797.25,8
982.0,985.0,-28.5,-424.5,558.25,591.0,1521.0,1105.25,8
976.75,981.25,-176.25,-439.0,446.75,614.75,1386.0,1481.5,8
975.0,985.0,-325.25,-402.0,145.25,572.75,1259.75,1670.0,8
979.75,986.0,-436.5,-401.5,70.25,539.75,1126.25,1769.5,8
975.25,993.0,-603.25,-391.25,-274.0,458.0,968.5,1802.75,8
958.0,986.75,-687.25,-379.25,-520.0,434.75,47.0,1847.0,8
955.0,985.75,-781.0,-362.0,-667.5,373.75,-1023.25,1886.25,8
953.75,984.5,-843.5,-336.25,-660.0,333.75,-1252.25,1825.0,8
954.25,997.75,-852.5,-318.25,-657.0,290.75,-1304.5,1737.0,8
961.0,948.0,-922.0,-299.25,-804.75,189.25,-1375.75,1558.25,8
979.0,789.5,-1009.0,-270.5,-1115.0,57.25,-1453.5,1311.5,8
1016.25,634.75,-1014.0,-235.75,-1462.75,-70.5,-1530.0,1179.75,8
1037.75,499.0,-1008.5,-218.75,-1658.25,-150.0,-1597.75,1183.75,8
1062.0,375.75,-1006.0,-185.0,-1861.25,-212.75,-1620.0,1147.75,8
955.0,284.75,-1000.25,-157.5,-1972.25,-228.25,-1635.0,1050.5,8
793.5,170.75,-998.25,-138.0,-2074.0,-274.75,-1649.0,952.75,8
621.25,89.75,-991.25,-94.25,-2227.75,-293.5,-1596.25,886.5,8
498.0,77.0,-991.75,-45.5,-2199.0,-258.5,-1547.25,817.5,8
404.0,43.25,-1007.0,-12.0,-2271.0,-224.25,-1457.5,659.0,8
306.5,9.75,-1011.0,-15.25,-2450.5,-242.0,-1401.75,522.5,8
208.5,-40.0,-1008.5,-12.25,-2646.0,-218.0,-1320.5,467.0,8
136.0,-56.0,-1009.0,12.75,-2835.25,-185.0,-1268.25,247.75,8
78.0,-73.0,-931.5,17.75,-2940.75,-158.25,-1282.0,-186.75,8
12.0,-106.5,-853.0,9.0,-2938.75,-141.75,-1224.25,-567.5,8
-50.25,-116.0,-779.75,1.75,-2932.5,-160.25,-1127.25,-851.5,8
-90.5,-131.0,-705.75,10.5,-2924.5,-187.75,-1061.5,-1235.5,8
-150.0,-151.5,-649.75,6.75,-2927.5,-223.5,-677.25,-1467.25,8
-207.0,-175.0,-613.75,38.25,-2931.5,-249.25,-401.25,-1380.75,8
-267.25,-216.75,-605.75,50.75,-2935.25,-312.25,-277.75,-1324.25,8
-351.25,-256.5,-609.25,43.25,-2936.75,-321.75,-268.25,-1380.25,8
-372.0,-267.0,-590.5,77.5,-2938.75,-250.0,-280.75,-1456.25,8
-401.0,-273.25,-557.75,75.5,-2663.75,-133.5,-304.25,-1479.0,8
-448.5,-276.25,-528.25,86.25,-1326.5,38.0,-360.75,-1406.75,8
-487.25,-307.25,-546.0,94.5,-953.25,296.75,-310.0,-1291.75,8
-524.25,-320.5,-526.25,95.0,-954.0,639.25,-205.5,-1225.75,8
-524.0,-329.25,-491.5,116.75,-957.25,966.25,-83.75,-1255.0,8
-551.5,-343.0,-450.0,133.75,-961.25,1069.75,17.0,-1302.75,8
-541.0,-388.0,-382.75,123.5,-967.0,1254.75,54.75,-1363.75,8
-534.5,-525.75,-361.5,63.25,-772.75,1519.0,87.75,-1363.75,8
-492.0,-674.75,-401.5,-52.0,-245.5,1814.75,104.0,-919.75,8
-292.5,-858.5,-511.75,-205.25,545.75,2136.75,66.75,-417.75,8
59.5,-983.25,-651.75,-357.5,1028.0,2405.5,3.5,161.0,8
621.5,-986.0,-909.25,-549.25,929.25,2309.0,14.25,601.0,8
994.75,-995.5,-986.25,-618.75,926.0,2217.0,30.25,648.75,8
995.5,-988.25,-984.75,-550.25,1003.75,2126.75,175.25,457.25,8
997.75,-711.5,-988.75,-430.75,1010.0,1861.0,333.25,203.25,8
998.5,-460.0,-993.0,-327.25,1009.0,1583.25,480.5,-5.0,8
993.25,-229.5,-1002.0,-191.0,1006.5,1268.5,664.0,-289.5,8
997.0,35.0,-960.0,-53.75,928.0,1035.0,791.75,-585.5,8
999.25,353.75,-989.25,104.25,-8.0,706.75,937.0,-759.75,8
1013.75,674.5,-982.75,276.0,-1189.25,329.0,1088.0,-723.75,8
1007.75,877.75,-932.0,393.25,-1472.5,20.75,1226.75,-698.0,8
1012.0,1027.75,-715.5,502.0,-1409.75,-265.75,1349.75,-708.5,8
1003.75,1018.5,-528.75,603.5,-1528.5,-492.0,1477.5,-639.5,8
992.0,1004.75,-439.25,718.0,-1791.25,-746.75,1703.5,-558.5,8
1009.0,1008.5,-275.25,764.25,-1956.75,-963.25,1911.25,-555.5,8
986.5,1012.25,93.25,700.0,-1943.5,-1175.0,1925.5,-592.0,8
304.75,997.25,396.0,688.0,-1838.5,-1449.75,1923.5,-603.75,8
419.0,986.25,357.25,758.0,-1805.0,-1697.75,1930.0,-572.5,8
-66.75,986.5,679.5,650.5,-1687.5,-1833.75,1938.75,-643.5,8
-1000.25,678.5,932.75,560.25,-1684.0,-1842.25,1984.75,-666.5,8
-1018.25,746.0,959.5,553.5,-1664.5,-1805.75,1993.5,-556.0,8
-1013.25,364.0,972.0,400.25,-1775.75,-1701.75,1778.25,-119.5,8
-1021.0,-210.25,973.25,197.75,-1864.0,-1582.0,1595.0,723.0,8
-1019.0,-984.75,988.0,-86.25,-771.0,-1480.0,1455.0,1392.0,8
-1014.0,-1035.75,1006.5,-319.0,134.5,-1414.0,1388.5,1422.75,8
-1026.25,-1017.0,1014.0,-461.0,433.0,-1392.0,1398.0,1295.25,8
-1011.0,-1016.5,1004.0,-387.0,-14.25,-1444.75,1520.0,1077.25,8
-1015.75,-1032.0,1002.0,-313.0,-150.5,-1483.75,1567.25,880.0,8
-1016.75,-1021.0,991.25,-235.75,-259.25,-1520.5,1506.25,396.25,8
-1003.75,-1010.25,993.0,-105.0,-185.0,-1488.5,1185.75,34.25,8
-1013.0,-633.0,980.5,1.0,-267.5,-1481.75,895.75,-476.25,8
-41.0,-12.75,216.5,193.0,-524.75,-1510.75,606.0,-802.25,8
980.5,512.0,-326.5,338.25,-502.0,-1488.75,333.5,-875.75,8
979.5,831.75,-595.0,418.25,-564.5,-1441.75,31.75,-899.5,8
984.25,750.5,-463.25,370.25,-568.5,-1388.25,-320.75,-976.5,8
990.75,688.0,-453.75,390.25,-709.5,-1269.0,-465.5,-1109.0,8
988.0,757.75,-473.75,363.5,-828.75,-1068.0,-539.0,-1140.0,8
985.75,564.0,-323.25,279.25,-922.5,-835.25,-607.75,-994.5,8
1002.0,458.25,-250.75,212.5,-798.0,-598.25,-653.25,-831.5,8
504.25,232.5,-63.25,128.75,-322.75,-373.0,-689.5,-491.5,8
162.25,87.75,21.25,101.75,126.5,-190.5,-725.5,-99.25,8
-400.5,-194.25,266.5,-26.0,863.75,-41.0,-840.0,251.75,8
-1004.5,-521.0,564.5,-164.25,1362.0,106.5,-921.5,529.75,8
-1002.5,-837.25,907.25,-264.25,1846.75,240.25,-969.0,755.5,8
-1004.25,-998.0,1009.5,-355.25,1886.25,328.75,-999.25,820.25,8
-1014.25,-992.5,997.75,-371.75,1884.75,335.75,-991.0,886.25,8
-1024.5,-998.5,991.75,-330.0,1685.75,274.5,-980.5,854.0,8
-1020.75,-994.5,1002.25,-193.0,559.5,86.25,-925.0,534.25,8
-1014.75,-845.0,986.0,52.25,-561.25,-298.25,-787.0,-48.25,8
-1004.75,-413.5,985.75,284.0,-748.25,-798.5,-649.25,-732.75,8
-1001.75,156.0,995.25,560.0,-1032.5,-999.75,-562.0,-1210.0,8
-1015.5,780.25,1001.75,803.75,-1147.0,-1071.75,-473.75,-1225.5,8
-1017.5,1013.5,1011.0,841.5,-1194.75,-1120.5,-426.75,-1246.0,8
-1000.0,1017.25,1011.25,693.75,-1205.5,-1139.75,-502.0,-1202.25,8
-434.75,1013.0,907.5,508.75,-1240.0,-891.75,-671.75,-945.5,8
374.0,862.25,428.75,375.5,-1227.0,-523.5,-819.5,-641.5,8
961.75,675.75,-27.75,261.5,-922.5,-297.0,-981.5,-403.0,8
1000.0,466.75,-470.25,203.75,-229.75,-39.5,-1140.25,-180.5,8
995.25,330.75,-788.25,85.5,626.5,263.0,-1197.25,55.25,8
994.75,240.75,-973.25,1.75,1363.75,532.0,-1271.75,140.0,8
986.0,131.25,-1003.5,-44.5,1754.75,730.5,-1322.25,179.0,8
986.75,58.75,-1025.5,-120.75,2147.5,887.25,-1319.5,261.75,8
994.0,-3.5,-1048.0,-151.0,2600.25,968.5,-1302.75,382.5,8
996.25,-58.5,-1066.0,-196.25,2725.25,1045.0,-1247.25,507.0,8
1004.0,-75.75,-1048.0,-235.75,2683.75,1132.5,-1235.5,577.75,8
1009.5,-82.25,-1048.5,-261.25,2629.5,1177.75,-1207.75,574.75,8
998.0,-102.25,-1038.0,-292.5,2589.25,1222.5,-1177.5,424.75,8
991.25,-118.5,-1033.25,-317.5,2533.5,1191.75,-1106.75,291.5,8
986.0,-139.25,-1022.75,-328.5,2521.5,1119.0,-1031.75,203.5,8
983.75,-162.5,-994.25,-324.25,2585.75,1022.25,-900.0,161.25,8
993.0,-153.75,-986.75,-329.0,2565.25,920.5,-648.5,165.0,8
991.5,-150.0,-972.0,-356.75,2572.75,671.0,-401.5,105.5,8
1001.5,-118.75,-964.0,-356.25,2554.25,389.25,-221.75,9.75,8
1000.5,-69.5,-869.0,-327.0,2527.0,135.0,-104.25,-1.75,8
986.75,-64.0,-719.75,-307.25,2509.25,-42.75,-80.25,94.5,8
980.75,-388.75,-575.0,-352.0,2471.0,421.25,-196.75,835.0,8
990.75,-1038.0,-500.75,-1018.25,2429.25,694.0,-304.5,853.25,8
943.25,-1029.25,-407.75,-1003.25,2404.25,976.75,-303.5,878.25,8
-186.0,-1025.25,-237.25,-985.5,2386.75,1215.0,-183.5,906.75,8
-1003.0,-1016.75,49.5,-987.0,2156.25,1447.5,24.75,947.0,8
-1002.5,-993.0,310.0,-984.75,1956.5,1654.25,21.75,988.25,8
-1002.5,-989.5,399.25,-1006.25,1824.0,1760.5,69.0,1017.25,8
-998.5,-994.0,930.0,-993.5,1804.75,1875.75,210.0,866.75,8
-1003.5,-986.0,985.25,-991.75,1827.75,1977.0,240.0,19.5,8
-1001.25,-389.25,984.25,-993.25,1854.0,1958.75,386.0,-320.75,8
-1008.0,108.25,983.75,-988.25,1732.75,1322.0,322.75,-758.25,8
-1002.75,654.5,754.25,-1000.5,1420.5,760.0,-72.0,-942.5,8
-1008.5,812.75,109.25,-1000.75,315.75,305.75,-532.0,-1114.25,8
-543.0,1034.75,-379.25,-38.75,-1070.5,203.5,-745.75,-1108.0,8
331.75,1046.0,-700.75,309.5,-1570.0,228.75,-1183.25,-1108.75,8
997.0,1035.0,-1009.25,1011.25,-1757.25,230.0,-1261.75,-1090.0,8
996.0,1024.75,-1009.5,1003.25,-1893.0,228.75,-1215.75,-1003.75,8
1003.25,1024.5,-1030.25,1002.5,-1979.75,242.25,-1138.25,-917.25,8
994.25,1006.25,-1036.75,997.75,-2108.25,227.0,-1066.75,-857.25,8
989.75,1006.75,-1027.5,996.0,-2231.5,203.25,-963.0,-820.25,8
1000.0,1016.0,-1031.5,998.75,-2304.25,185.25,-889.5,-848.5,8
997.5,1001.75,-963.75,991.25,-2004.25,35.0,-294.75,-917.5,8
225.25,1017.25,-354.0,225.5,-494.5,-102.25,-282.25,-885.75,8
801.0,1020.0,-670.75,-163.75,-874.75,-293.0,-611.5,-877.5,8
991.5,1024.25,-1009.0,983.0,-1560.5,-457.75,-858.25,-858.25,8
998.25,535.0,-1018.5,981.25,-1328.0,-604.25,-845.75,-859.75,8
986.0,996.0,-1015.5,969.5,-1005.25,-770.5,-835.5,-930.0,8
991.0,1013.75,-999.5,989.25,-912.75,-908.75,-738.75,-991.25,8
989.25,1009.25,-993.75,1002.25,-1132.0,-1010.0,-600.5,-1062.5,8
1005.75,1028.25,-981.25,1002.25,-1546.75,-1176.75,-490.0,-1108.5,8
999.0,1022.25,-976.5,1003.5,-1956.5,-1330.5,-406.25,-1154.0,8
992.25,999.75,-980.25,1001.75,-1856.75,-1392.75,-375.25,-1178.75,8
999.25,997.25,-974.0,1006.25,-1579.75,-1460.25,-426.25,-1121.0,8
989.0,968.0,-795.0,994.25,716.75,-798.75,176.25,-626.75,8
-113.25,242.0,157.0,585.25,1271.5,95.25,966.75,-264.5,8
-1013.75,-21.75,992.0,-1010.25,1761.75,379.25,1207.0,-60.5,8
-1004.25,-44.5,995.0,-1013.75,2111.25,324.0,1177.25,-47.0,8
-997.0,-28.5,994.0,-1032.5,2557.5,-237.25,990.0,-370.25,8
-995.75,167.75,621.75,-428.75,2731.75,-401.5,1326.25,-1027.5,8
-993.75,992.5,1002.75,-1023.25,2603.25,127.25,1456.75,-1072.5,8
-1003.5,1001.5,997.25,-1015.75,2430.75,110.75,1616.75,-1100.25,8
-1006.75,976.75,1003.0,-1020.25,2298.5,147.25,1779.25,-1241.0,8
-1005.5,964.5,991.5,-1034.25,2227.5,86.25,1928.0,-1283.5,8
-1009.5,952.0,972.5,-1030.25,2427.0,72.75,2008.75,-1266.75,8
-1025.75,946.25,982.0,-1032.0,2574.25,158.0,2117.5,-986.25,8
-1029.5,-1036.75,994.75,-1023.5,2241.25,-1132.25,250.75,718.5,8
-1018.75,-1026.5,-1014.5,997.5,324.25,-1717.0,332.25,725.5,8
989.5,-1016.0,-1020.0,999.25,256.0,-1692.25,397.25,696.5,8
992.75,-1012.0,-1002.5,996.75,179.5,-1681.75,399.5,681.75,8
1009.75,-995.25,-998.0,1000.5,138.0,-1621.25,290.25,78.25,8
1020.25,1007.25,-1004.5,998.75,-53.25,-1590.5,113.0,-1250.0,8
1017.5,584.25,-1010.5,993.75,-538.25,-1541.0,-56.25,154.5,8
1006.0,76.75,-1025.0,996.0,-942.25,-1475.0,-117.25,-761.0,8
1001.75,811.75,-1024.75,982.75,-1165.0,-1455.0,29.0,124.5,8
1004.75,-520.5,-1014.25,981.75,-1321.0,-1393.5,240.75,101.0,8
999.75,488.75,-1005.5,974.25,-1019.25,-750.0,436.5,136.5,8
592.0,-697.25,-1006.5,865.0,-876.75,-584.0,905.5,759.75,8
-213.75,109.0,-607.75,290.5,-234.25,356.25,1785.5,400.75,8
-304.5,-509.0,-255.25,-210.0,343.25,449.75,1954.25,1049.5,8
-969.75,-98.5,61.5,-606.25,636.5,826.0,2763.5,658.5,8
-925.5,-300.5,372.75,-986.0,1179.25,917.0,2675.5,971.25,8
-980.75,-229.75,536.5,-1000.0,1549.0,960.5,2970.0,867.5,8
-990.5,-167.75,750.5,-1002.0,1454.0,991.75,2978.25,902.75,8
-994.5,-494.25,788.25,-1004.25,1038.0,1031.75,2990.25,878.75,8
-995.0,-568.0,860.0,-1005.75,595.25,1093.0,2974.25,868.0,8
-992.5,-952.75,485.25,-1024.5,362.75,1137.25,2956.0,872.0,8
360.75,-977.25,-181.0,-1020.25,119.75,1071.75,2696.25,879.5,8
987.25,-981.25,-1006.75,-1025.0,-166.25,1018.5,2259.5,900.0,8
992.5,-374.25,-997.25,-1023.5,-462.5,1039.0,1913.25,939.5,8
983.5,649.25,-997.25,-1009.75,-744.5,1129.0,1685.5,325.5,8
995.5,1017.25,-1004.0,-1017.5,-1447.0,1123.25,1523.5,-882.5,8
997.0,1013.5,-748.25,-1017.75,-1371.5,1033.25,1386.75,-845.25,8
-1020.75,1026.0,1004.5,-1014.25,-907.0,1008.25,1234.75,-817.5,8
-1012.0,1016.25,998.5,-1015.75,-701.75,1013.5,1001.0,-791.75,8
-1010.0,1002.0,993.25,-1003.5,-2201.25,1067.5,762.5,-754.75,8
-1012.0,1005.75,996.25,-1004.0,-1673.0,1058.75,563.25,-729.75,8
-1014.0,995.75,1009.75,-1007.0,-1565.5,1019.5,470.75,68.0,8
-1000.75,985.75,978.5,-1007.5,-1913.75,816.5,426.25,220.75,8
-1014.75,987.75,983.0,-1015.5,-2190.5,229.0,379.0,975.0,8
-1017.0,997.75,995.0,-1003.75,-2554.0,-326.25,339.5,1105.5,8
-1014.5,989.75,988.5,-1025.0,-2680.25,-516.75,115.0,1245.0,8
-1029.5,-14.0,984.75,-550.5,-2459.75,-1192.25,-525.0,1219.0,8
-1026.5,-53.5,979.5,-623.5,-2246.0,-1020.0,-679.75,1223.0,8
-1036.25,-426.5,980.75,-528.5,-2156.0,-1336.0,-1239.25,1236.0,8
-1041.0,-509.0,980.5,-188.25,-2060.25,-1358.75,-1595.0,1240.5,8
-1044.75,-1006.5,879.25,309.0,-1939.25,-1409.5,-2270.0,1250.5,8
-437.75,-997.75,377.5,416.0,-1768.5,-1430.0,-2210.0,1265.25,8
-785.25,-994.0,442.5,359.75,-1361.25,-1427.5,-2402.25,1265.0,8
-107.0,-997.25,-28.75,599.5,-1381.75,-1444.5,-2427.25,1279.5,8
-175.5,-1013.0,15.5,622.75,-1409.25,-1444.25,-2456.0,1311.0,8
146.75,-1020.0,-209.0,624.75,-1103.75,-1430.25,-2472.25,1303.0,8
-532.0,-1020.5,330.0,155.5,-1322.75,-1270.75,-2294.75,1299.75,8
-604.75,-1006.5,-24.0,810.5,-1549.0,-1383.5,-2469.5,1301.25,8
673.75,-999.25,-734.75,1011.0,-1401.25,-1358.5,-2439.75,1270.0,8
961.5,-1005.25,-873.75,995.0,674.25,-1334.75,-2421.25,1210.0,8
932.75,-1010.0,-773.5,870.5,911.25,-1136.25,-2409.0,957.0,8
890.75,-1003.5,-869.5,1000.0,1075.0,-1214.0,-2392.25,923.0,8
1010.25,-990.0,-1003.25,996.25,1055.5,-964.25,-2320.0,565.25,8
991.25,-987.75,-842.0,793.25,1461.5,-937.0,-2251.75,601.0,8
1013.25,-977.75,-987.0,998.5,-331.5,-1305.5,-2205.25,873.5,8
1004.0,-1003.75,-989.75,996.75,1322.25,-1296.25,-2167.25,585.25,8
996.75,-1026.0,-981.75,982.5,2007.5,-535.0,-2160.5,150.75,8
966.25,-1034.0,-989.0,981.25,1909.5,-637.25,-2150.75,291.25,8
967.5,-1023.5,-1007.25,989.75,1775.25,-496.0,-2128.25,59.5,8
995.0,-1008.5,-1005.0,595.5,1695.25,-26.25,-1833.0,-167.75,8
974.75,-1015.25,-1006.5,437.5,1642.5,54.25,-1640.0,-281.0,8
962.25,-1019.5,-644.0,121.0,1434.5,222.25,-1372.25,-324.0,8
949.0,-1029.0,-646.75,410.25,1253.0,-149.5,-1606.75,-130.5,8
940.0,-1014.5,-669.25,336.5,1366.0,80.5,-1219.25,-438.25,8
760.25,-776.0,-299.25,94.0,1701.25,101.75,-1177.5,-423.5,8
811.25,-750.75,-404.5,316.5,2108.75,-52.0,-1220.25,-428.0,8
817.25,-644.75,-355.75,279.75,2360.5,14.25,-1167.75,-446.0,8
788.25,-570.5,-347.0,257.0,2401.5,61.75,-1037.75,-492.75,8
589.75,-341.25,-153.75,66.5,2353.5,162.25,-704.25,-726.0,8
590.25,-349.0,-283.0,306.5,962.0,-79.75,-626.25,-853.5,8
879.75,-469.75,-511.5,478.5,754.0,-95.75,-290.25,-832.75,8
918.5,-474.5,-509.5,387.5,2124.0,146.0,208.5,-806.75,8
673.25,-240.5,-213.5,12.0,1985.0,402.5,766.75,-744.5,8
470.0,-140.75,-236.0,244.0,455.5,69.25,825.25,-208.0,8
861.25,-369.25,-564.25,474.5,-382.25,59.75,1053.25,-210.75,8
842.5,-305.25,-527.0,356.0,-232.0,84.25,1003.0,68.0,8
992.75,-512.25,-862.5,741.5,-1624.75,-231.0,720.75,305.5,8
984.5,-716.0,-992.75,802.5,-1385.0,-103.0,836.0,173.25,8
975.0,-701.5,-970.25,555.25,-527.75,152.5,968.25,138.5,8
963.75,-786.25,-999.5,757.25,-1939.0,-115.0,650.0,395.75,8
972.0,-931.0,-1003.25,634.0,-1010.75,459.0,1325.5,-293.75,8
986.75,-264.25,-109.75,-552.0,-1009.25,1302.0,2087.75,-722.25,8
635.75,-25.5,-50.75,-294.25,-1003.5,794.5,1682.0,-193.0,8
881.5,-158.75,-238.0,-103.25,-995.25,691.75,1675.0,-101.75,8
974.25,-247.5,-521.5,339.0,-1530.75,159.75,1227.5,267.0,8
1006.5,-395.25,-472.25,36.5,-893.75,851.5,2072.25,-561.25,8
319.0,283.25,458.0,-739.75,-716.0,1106.0,2151.75,-430.25,8
489.0,86.75,-41.5,-67.5,-613.0,524.25,1804.75,-172.25,8
529.75,134.75,105.25,-290.5,-447.0,716.5,1914.0,-140.25,8
583.5,24.75,-199.25,172.0,-1531.0,201.75,1507.75,295.5,8
751.5,-70.75,-151.25,-55.75,-249.5,553.0,1864.5,97.75,8
456.25,62.25,-58.5,27.25,-527.25,225.75,1571.25,420.25,8
764.5,-197.0,-352.25,184.0,-629.75,301.75,1821.75,54.75,8
404.25,52.0,82.0,-205.5,115.5,555.5,1983.0,-228.0,8
408.5,-4.25,-93.25,62.75,-982.5,110.0,1574.0,-189.0,8
877.75,-402.25,-798.0,683.25,-1964.25,-781.75,943.5,508.5,8
981.5,-1034.5,-1004.0,997.75,-1988.0,-784.75,966.25,677.75,8
978.5,-1027.75,-997.75,983.75,-1921.5,-795.5,982.0,992.5,8
996.75,-1010.25,-1012.25,982.5,-1798.25,-799.0,987.5,1294.5,8
1009.25,-996.25,-1006.25,988.75,-1598.25,-646.75,965.0,985.25,8
994.75,-472.0,-131.75,-88.5,476.0,1152.75,2863.25,-620.0,8
-813.0,999.25,985.5,-1010.0,299.25,1121.0,2905.25,-760.0,8
-1010.0,1012.0,1001.0,-1007.75,199.5,1083.0,2853.5,-965.0,8
-1012.25,1011.25,997.25,-1005.25,159.5,1054.0,2767.75,-1164.0,8
-1004.75,1021.5,997.5,-1010.0,180.25,1056.0,2663.25,-1325.25,8
-1010.75,1028.0,1002.75,-1011.0,745.5,1042.5,2573.5,-1549.5,8
-1013.5,1017.25,1001.5,-822.75,-411.5,225.25,2002.5,-916.5,8
-277.75,586.25,301.5,160.25,-0.75,-271.5,1619.5,-1093.0,8
-763.25,1012.25,993.25,-1012.25,2660.5,1023.25,2206.75,-1886.5,8
-1011.5,1022.25,1000.5,-1008.75,3027.25,1020.0,2009.25,-1882.5,8
-1008.75,1026.75,1002.0,-1007.25,3027.75,739.25,1832.0,-1878.25,8
-1001.25,1022.0,995.75,-1010.0,3037.0,823.5,1680.75,-1871.5,8
-992.25,1021.0,999.0,-823.0,1044.25,-29.75,1123.5,-1085.0,8
-996.5,1028.5,995.5,-535.75,1048.5,58.75,1037.25,-1257.75,8
-1000.0,1012.0,991.75,-750.5,492.25,110.25,679.75,-951.0,8
-994.5,1015.0,1000.0,-620.5,156.25,-38.5,330.0,-779.25,8
-992.5,1021.0,1000.5,-505.75,153.75,-179.0,4.75,-533.75,8
-1003.25,1006.25,683.25,-252.75,186.75,-346.5,-240.75,-334.25,8
-998.25,1000.25,628.75,-211.5,-140.0,-360.0,-375.0,-166.25,8
-986.0,931.5,301.0,40.25,-543.75,-592.5,-651.0,62.25,8
-818.75,722.5,46.5,225.75,-513.0,-598.75,-777.5,205.75,8
-503.75,451.0,-360.75,553.0,-386.0,-730.0,-1071.25,583.75,8
-79.0,142.5,-679.5,680.25,-182.0,-550.75,-1108.5,822.75,8
122.25,-28.0,-835.5,723.0,-321.75,-409.75,-1212.0,991.25,8
341.75,-205.75,-963.5,676.75,-840.25,-186.0,-1177.25,946.0,8
409.75,-317.5,-1036.75,736.25,-1218.0,-188.5,-1418.5,1077.75,8
784.0,-600.75,-1019.75,967.75,-1366.0,-227.5,-1577.25,953.0,8
903.5,-649.25,-1015.25,783.25,140.75,80.0,-1438.75,639.25,8
764.25,-550.5,-1021.5,519.75,1138.5,267.25,-1368.0,468.25,8
579.0,-408.0,-771.5,285.25,1596.5,437.0,-1254.5,326.25,8
346.0,-263.25,-552.25,143.5,1992.0,390.75,-1236.5,349.5,8
303.5,-227.5,-567.0,247.5,2155.5,126.25,-1401.25,526.75,8
568.0,-418.0,-902.5,603.0,768.5,-164.25,-1620.0,594.5,8
739.75,-503.25,-819.5,372.75,2085.5,228.75,-1088.5,-85.0,8
48.25,-19.75,40.5,-385.25,2235.0,604.0,-738.25,-401.0,8
-300.25,133.25,104.75,-176.0,2100.5,189.5,-1115.25,-53.25,8
-62.25,-39.0,-144.25,104.75,1561.75,11.75,-1288.75,112.5,8
207.5,-306.5,-774.5,768.25,266.5,-807.0,-2137.0,640.0,8
990.5,-1020.0,-1002.25,969.5,198.75,-810.75,-2123.75,613.5,8
996.0,-1013.75,-1001.0,970.25,113.0,-846.25,-2136.0,633.25,8
994.0,-1004.5,-1014.0,962.0,-132.0,-897.0,-2185.75,676.75,8
999.0,-1000.5,-993.5,967.75,-8.0,-923.25,-2260.0,753.25,8
998.5,-1007.75,-1001.75,969.0,1677.75,-948.75,-2272.5,633.25,8
991.25,-996.25,-828.25,752.5,1541.25,1048.0,-272.5,-969.25,8
1001.5,1025.0,998.25,-441.25,1106.0,1038.75,-281.0,-861.75,8
-992.0,1027.5,1002.0,-1003.25,1097.75,1027.75,11.5,-759.5,8
-1006.75,1029.0,999.25,-990.75,1266.75,977.5,539.5,-646.75,8
-1001.0,1039.75,1000.75,-1003.75,1638.0,930.25,1034.75,-545.0,8
-858.25,1030.75,1007.25,-762.75,505.0,907.25,1456.5,-424.5,8
536.0,559.25,490.25,66.75,-529.75,227.0,891.25,499.25,8
1013.5,-398.25,-656.25,420.0,-651.75,-512.5,-334.5,1503.75,8
1000.75,-1004.5,-1007.75,572.25,-869.0,-1020.0,-453.25,1767.5,8
1001.0,-1009.25,-1011.25,364.25,-1055.0,-908.5,-409.5,1793.0,8
986.25,-1005.75,-997.25,316.75,-1069.5,-1036.0,-388.0,1819.75,8
988.5,-995.5,-986.25,113.5,-1207.25,-943.0,-385.5,1813.75,8
1002.5,-989.75,-986.25,-75.0,-1248.75,-814.75,-395.0,1780.0,8
937.0,-983.5,-992.5,-263.5,-1321.75,-526.0,-398.0,1758.0,8
376.5,-977.5,-852.5,-417.75,-467.25,-283.25,-402.75,1722.5,8
-111.5,-990.5,-481.75,-585.25,40.0,-60.75,-392.5,1703.5,8
-892.5,-988.25,39.75,-781.5,404.5,234.5,-140.0,1653.5,8
-1001.5,-987.25,493.25,-904.0,547.0,457.25,246.75,1613.5,8
-1012.75,-818.5,920.0,-986.25,653.25,683.75,596.0,1327.25,8
-1015.5,-463.25,1005.0,-1016.5,661.75,749.25,870.0,1078.25,8
-1011.0,-112.75,1004.0,-1016.0,535.25,832.5,1182.75,611.75,8
-1006.5,353.75,1005.75,-969.25,793.75,800.0,1403.0,214.25,8
-1020.5,729.5,1010.5,-916.25,814.75,790.0,1570.5,-201.75,8
-1015.0,994.25,990.25,-853.25,451.5,693.5,1607.5,-407.0,8
-1012.0,1012.5,989.0,-805.75,113.75,686.75,1655.5,-429.25,8
-1020.5,1005.75,992.25,-774.5,525.25,646.25,1697.0,-450.5,8
-1009.0,1012.5,997.25,-771.75,1095.25,608.75,1734.5,-241.75,8
-1009.5,1030.25,1007.25,-821.25,1271.25,626.0,1745.5,149.5,8
-1011.25,957.25,1009.75,-898.25,1649.25,643.5,1752.75,850.5,8
-1013.5,257.0,1005.25,-1000.75,1927.25,735.5,1762.0,1519.0,8
-1017.5,-877.25,1007.25,-1006.0,2021.5,606.0,1799.0,1483.25,8
-1020.0,-900.5,1008.75,-1004.0,1942.0,347.25,1826.25,954.5,8
-1011.75,46.0,1003.75,-884.25,2034.25,428.75,1869.25,503.5,8
-1002.0,251.0,1006.25,-845.25,2053.25,615.25,1915.75,-91.0,8
-1008.25,778.0,1003.75,-586.75,2138.0,652.75,1953.75,-762.0,8
-207.25,992.25,1009.75,-468.25,2200.25,728.75,1963.75,-989.0,8
458.0,990.75,738.25,-305.25,2223.5,704.75,1960.5,-1310.0,8
992.75,990.5,-84.75,-135.0,1811.5,734.25,1929.75,-1468.5,8
997.0,970.75,-764.25,57.25,689.25,682.0,1955.75,-1441.0,8
1001.0,969.25,-997.75,298.0,-392.0,641.25,1972.5,-1294.25,8
1008.75,962.25,-995.25,377.75,-589.25,620.75,1886.0,-1144.5,8
1010.0,976.75,-997.5,537.25,-409.25,555.5,1738.25,-1112.75,8
1015.75,981.0,-999.25,591.75,-633.5,622.0,1567.75,-1195.5,8
1009.25,989.25,-994.5,631.0,-932.25,542.5,1411.25,-1186.25,8
998.75,993.75,-994.75,779.75,-1403.25,456.5,1250.75,-1258.75,8
1001.25,991.0,-1005.5,810.75,-1970.75,372.25,1026.5,-1368.0,8
996.5,1002.0,-1004.25,826.0,-2063.75,229.5,1006.0,-1341.75,8
993.0,988.25,-1011.75,939.75,-2190.5,180.0,1004.75,-1332.5,8
988.0,966.5,-1010.25,916.75,-2019.5,341.0,848.25,-1224.5,8
987.75,949.5,-940.5,699.25,-2018.5,320.0,185.25,-1119.5,8
991.0,943.0,-970.75,465.0,-1600.5,314.5,-51.75,-1186.5,8
880.0,950.5,-381.0,477.25,-1238.0,794.5,625.0,-1181.0,8
199.75,976.0,986.5,33.5,190.75,1316.25,599.0,-1115.0,8
-1004.25,983.0,996.75,-1025.0,141.75,1302.75,555.5,-941.25,8
-993.25,1001.5,996.75,-1016.0,208.5,1246.0,506.0,-732.5,8
-995.75,1010.25,991.5,-1016.75,217.25,1107.75,439.75,-799.5,8
-1000.75,1016.5,995.5,-1011.75,-387.0,901.5,401.0,-997.0,8
-1007.0,1033.75,993.0,-1011.5,-1735.25,670.5,384.5,-1219.0,8
-1005.0,1026.5,984.25,-1010.5,-2120.75,-246.75,350.75,-714.75,8
-1001.75,1038.25,980.0,-790.5,-2371.5,-883.25,-398.5,453.0,8
-994.5,401.25,816.0,-331.5,-2491.25,-1560.5,-897.25,640.25,8
-997.75,22.0,223.0,-16.75,-2586.0,-1957.25,-1621.75,622.0,8
-1005.5,-966.25,-548.25,320.5,-2830.25,-2124.25,-1663.5,539.25,8
-1014.0,-975.25,-760.5,265.5,-2986.5,-2197.0,-1727.0,506.25,8
-823.5,-970.25,-1003.0,622.25,-2818.25,-2184.25,-1806.5,507.5,8
316.0,-975.25,-997.5,1000.5,-2577.25,-2099.0,-1862.25,576.0,8
922.0,-992.25,-1004.75,995.75,-2591.75,-1983.5,-1801.75,628.75,8
764.5,-1014.25,-1000.5,752.0,-2552.75,-1842.75,-1625.5,612.25,8
-275.5,-1027.5,-1008.25,274.5,-1848.5,-1681.5,-1545.25,613.0,8
162.75,-1015.25,-1014.75,701.0,-1870.5,-1534.5,-1522.5,611.5,8
413.5,-1004.25,-997.75,681.75,-1779.75,-1430.75,-1445.0,639.25,8
989.25,-988.75,-996.25,990.25,-1804.5,-1385.5,-1391.75,686.25,8
1008.25,-977.25,-1003.25,994.0,-1450.0,-1355.25,-1347.75,748.25,8
1001.75,-981.0,-1012.0,736.25,1158.75,-1155.25,-1349.5,822.5,8
877.75,-978.5,-1008.0,761.0,1169.75,-1210.0,-1346.75,916.75,8
989.0,-979.75,-998.25,602.0,1110.0,-989.25,-1304.5,1058.75,8
839.25,-995.0,-992.75,756.25,234.25,-1155.25,-1314.25,1155.5,8
994.0,-998.25,-985.0,993.0,-677.0,-1207.5,-1306.75,1228.25,8
992.5,-998.0,-997.5,608.5,1381.25,-641.0,-1298.0,1295.25,8
338.0,-998.25,-953.0,-55.5,1529.25,-212.25,-1122.25,973.5,8
77.25,-1004.5,-959.5,199.25,1515.0,-447.25,-1292.5,1427.75,8
868.25,-1014.25,-1019.75,476.5,770.75,-362.5,-1316.5,1303.0,8
398.0,-1011.0,-812.5,104.75,1365.5,-174.25,-1366.0,1523.5,8
1002.0,-1013.25,-1013.25,921.5,-639.5,-695.75,-1433.75,1727.75,8
997.0,-1008.5,-1002.5,849.0,-237.75,-314.25,-1511.25,1703.5,8
998.75,-993.25,-985.0,394.25,1410.0,26.0,-1552.0,1517.75,8
823.75,-994.75,-748.75,162.25,1554.25,446.5,-1147.0,848.0,8
-148.5,-472.5,-24.25,-386.25,1674.25,663.75,-1209.75,832.75,8
52.25,-622.5,-350.25,42.75,1607.5,384.0,-1861.0,1142.0,8
243.5,-613.25,-255.0,-58.75,1837.75,452.25,-1802.25,1057.75,8
300.5,-629.5,-425.75,243.5,247.0,120.75,-2064.5,1446.5,8
683.5,-802.5,-483.25,192.5,1220.75,289.25,-1700.25,959.25,8
204.25,-424.5,-149.5,-38.25,1872.5,374.0,-1559.75,701.5,8
107.5,-313.5,1.75,-197.0,2222.5,621.75,-1256.5,171.75,8
-284.0,9.5,230.5,-260.25,2155.25,703.75,-1414.75,305.25,8
198.0,-296.25,-102.75,41.25,1331.75,624.25,-1382.25,112.75,8
67.0,-113.75,74.5,-98.75,1345.5,575.5,-1323.25,253.5,8
589.0,-517.25,-477.5,446.5,76.0,243.25,-1650.25,608.5,8
988.5,-792.5,-686.5,501.5,71.5,190.5,-1605.25,469.25,8
986.25,-966.25,-1020.0,974.25,-5.75,-477.5,-1295.0,334.75,8
990.0,-972.0,-1012.0,975.5,-353.25,-543.5,-783.75,112.75,8
992.5,-982.25,-1009.5,841.0,-813.0,-696.75,-280.5,104.25,8
992.25,-996.0,-1008.5,970.75,-1272.0,-1153.25,155.0,117.25,8
997.75,-992.75,-1011.25,980.75,-1279.25,-1204.5,502.0,76.5,8
998.0,-996.5,-1015.5,992.25,-1196.0,-1246.5,677.25,52.5,8
1004.5,-1005.5,-1002.5,868.75,-380.0,-860.0,715.75,171.0,8
999.75,-1019.25,-1007.5,485.75,922.0,-326.5,1024.0,84.75,8
992.25,-1026.25,-675.75,224.5,931.5,-246.25,856.0,713.5,8
988.5,-1019.5,-862.0,189.75,923.75,-141.0,905.0,805.5,8
789.0,-656.25,156.0,-266.25,950.75,812.5,2379.0,-159.25,8
-1004.0,981.0,984.75,-930.5,923.25,1005.0,1700.25,-102.75,8
-1004.75,982.25,988.0,-1013.0,958.5,1009.75,370.75,-302.5,8
-1007.25,980.25,985.5,-1015.0,946.5,1002.5,194.75,-500.75,8
-1011.0,980.0,979.25,-999.75,952.5,1069.75,159.75,-621.25,8
-1003.25,984.75,985.5,-1005.75,923.75,1069.5,123.75,-697.75,8
-1011.25,979.75,994.5,-1015.5,828.25,974.75,99.0,-656.5,8
-1009.0,973.0,989.25,-1019.75,760.25,934.5,640.25,-555.5,8
-1001.0,980.0,991.75,-1016.25,635.75,743.75,1472.75,-492.25,8
-1001.0,991.75,973.25,-925.75,-322.0,315.25,2013.75,-604.5,8
-1010.75,996.75,962.0,-697.75,-668.0,106.75,1979.75,-604.0,8
-933.5,999.25,971.5,-651.75,-682.25,73.0,1668.0,-770.25,8
-863.5,1000.0,984.5,-670.5,-35.25,177.25,1902.0,-1282.5,8
-998.5,997.75,998.0,-875.0,576.75,238.0,2014.75,-1561.75,8
-1009.5,1004.0,999.25,-692.0,-647.5,71.0,1635.5,-1271.5,8
-565.5,775.25,568.25,-323.0,-1257.75,-120.0,1294.75,-1049.25,8
-76.75,405.5,184.0,13.0,-1161.75,-371.25,973.25,-836.5,8
416.5,25.0,-163.25,196.5,-1009.25,-453.25,843.0,-798.0,8
533.5,-79.75,-260.0,223.75,-915.25,-404.25,370.0,-779.0,8
528.0,-106.5,-228.25,150.25,-847.5,-141.5,191.0,-1007.75,8
152.75,131.75,21.25,-59.5,97.25,81.25,327.0,-1101.0,8
6.75,183.25,38.5,-87.25,80.0,118.5,536.25,-1080.0,8
-136.75,249.5,103.25,-189.25,99.0,170.0,627.25,-1003.25,8
-32.5,144.25,-78.75,28.0,-494.5,-62.25,90.75,-668.0,8
322.25,-85.0,-265.25,155.75,-365.75,-138.0,-375.5,-585.25,8
375.25,-145.5,-336.5,241.75,-342.75,-177.75,-676.75,-417.0,8
567.0,-292.25,-453.25,325.0,-422.5,-50.5,-588.0,-406.5,8
540.75,-303.75,-439.5,306.0,-450.25,40.5,-373.25,-394.0,8
533.25,-326.0,-436.0,257.5,-566.25,121.5,-180.0,-483.25,8
390.5,-228.0,-336.75,168.75,-385.0,252.5,-180.5,-504.5,8
369.0,-234.75,-353.0,182.5,-600.5,129.5,-209.5,-293.75,8
428.0,-279.25,-397.25,282.75,-917.5,-52.0,-359.0,40.5,8
693.0,-479.75,-595.75,452.75,-992.5,-226.25,-483.25,236.0,8
674.75,-443.25,-491.5,319.25,-516.25,-242.0,-296.25,150.75,8
431.0,-276.25,-358.75,264.25,-345.25,-441.0,-380.0,382.25,8
494.5,-326.5,-401.75,277.5,-467.25,-598.5,-383.25,562.0,8
416.75,-279.0,-367.0,273.25,-387.75,-600.5,-501.75,833.5,8
452.0,-313.25,-398.25,295.0,-459.75,-539.5,-568.5,1020.0,8
396.0,-244.0,-302.0,171.5,83.25,-324.75,-325.0,914.5,8
132.75,-58.5,-115.5,26.25,419.75,-271.0,-100.25,865.75,8
45.5,-40.25,-136.5,99.25,-314.5,-370.25,-179.25,1077.75,8
275.5,-191.0,-292.5,240.5,-815.25,-270.0,-237.5,1166.25,8
312.5,-183.5,-265.75,191.75,-638.0,-190.5,-159.0,1136.0,8
256.5,-184.25,-240.0,184.5,-682.0,-130.25,-86.5,1120.75,8
211.25,-145.75,-197.0,142.75,-721.25,-109.25,99.25,1055.25,8
211.0,-132.0,-220.0,177.5,-1186.25,-192.75,48.25,995.0,8
252.0,-164.25,-223.25,131.5,-1080.75,-99.25,40.75,706.5,8
136.0,-89.75,-183.25,78.5,-1153.25,-249.75,-47.75,580.0,8
258.75,-183.5,-267.0,160.5,-1429.5,-449.0,-89.75,396.75,8
224.75,-140.75,-176.5,70.25,-910.25,-269.75,88.25,133.75,8
77.25,-55.0,-116.25,50.5,-995.5,-61.0,25.25,173.0,8
286.25,-202.25,-277.75,197.75,-1312.75,27.0,-2.0,192.75,8
312.0,-170.0,-190.75,87.5,-270.5,362.5,190.0,-101.5,8
-53.5,63.25,43.75,-89.75,395.25,504.5,186.5,-173.5,8
-54.75,27.25,-26.25,-3.5,-53.5,360.0,86.5,-39.5,8
84.25,-51.0,-80.5,43.75,-45.25,318.75,34.75,-9.75,8
98.5,-72.0,-99.0,60.25,101.0,283.25,63.75,78.75,8
88.75,-59.5,-72.5,15.0,432.0,350.75,208.0,140.75,8
-1.25,12.0,-13.5,-42.75,912.25,403.0,288.25,205.25,8
-84.0,46.0,39.75,-103.25,1177.5,482.0,340.5,201.5,8
-182.0,97.75,85.25,-117.75,891.75,530.75,221.0,176.75,8
-141.25,76.0,51.0,-52.0,475.0,651.0,104.25,87.25,8
-125.0,74.75,51.5,-37.75,128.0,665.0,-36.5,26.75,8
8.0,-18.25,-56.0,61.25,-235.0,593.25,-216.5,-0.5,8
75.25,-29.0,-28.25,3.75,-123.5,765.5,-160.25,-208.5,8
-78.25,33.0,49.25,-45.0,-277.75,792.75,-165.0,-212.25,8
-0.25,-22.75,3.75,-13.0,0.0,774.0,-112.75,-352.5,8
-240.0,190.25,271.75,-299.5,1129.25,759.25,102.5,-726.0,8
-611.75,397.25,420.25,-353.25,153.75,274.75,-141.75,-578.5,8
-276.25,173.0,107.75,4.25,-2048.75,-375.75,-567.5,-271.5,8
156.5,-87.75,-120.5,181.75,-2129.0,-711.75,-704.25,-167.0,8
173.0,-79.5,-68.25,82.75,-1517.0,-545.75,-713.5,-191.25,8
-41.25,51.75,77.25,-77.0,-993.75,-190.75,-728.25,-287.5,8
-190.75,144.25,160.75,-129.0,-933.5,-127.25,-814.25,-352.25,8
-170.25,121.25,121.0,-66.5,-1306.0,-317.0,-858.5,-372.5,8
-47.25,37.75,40.75,-12.75,-1444.25,-519.75,-732.0,-420.5,8
-125.25,110.75,127.75,-129.0,-912.25,-594.0,-504.0,-439.0,8
-220.25,136.75,114.25,-94.5,-1219.5,-799.0,-386.25,-262.0,8
-103.5,88.75,94.25,-87.25,-1098.25,-793.0,-179.0,-316.75,8
-263.0,191.25,222.5,-173.25,69.25,-837.5,-227.25,-332.75,8
-288.5,206.75,207.25,-144.75,650.75,-869.75,-368.75,-378.0,8
-320.5,241.0,220.75,-132.75,283.25,-761.25,-459.0,-333.75,8
-139.25,95.75,45.75,56.75,-183.25,-701.25,-514.0,-236.75,8
-65.75,96.0,89.75,-67.75,532.75,-251.0,-212.5,-325.0,8
-261.0,200.0,137.5,-52.0,86.0,-4.0,-200.0,-3.75,8
-2.0,33.75,-35.75,83.5,-238.0,328.5,-83.25,110.5,8
-87.0,89.75,42.75,-46.5,293.0,768.5,-63.0,283.0,8
58.25,-45.5,-196.5,215.5,-157.25,639.75,-527.0,846.0,8
650.75,-435.5,-570.75,513.0,-354.0,505.0,-556.25,1060.25,8
778.75,-503.0,-572.5,419.75,-230.5,541.75,-243.5,1034.0,8
692.25,-475.0,-496.0,320.0,791.0,282.75,99.75,1015.75,8
583.25,-422.75,-384.0,178.75,1882.0,201.0,370.75,983.0,8
467.25,-359.0,-357.0,191.5,1772.25,28.25,114.0,1377.0,8
924.5,-696.0,-740.5,585.5,215.75,-442.0,-231.0,1745.5,8
992.5,-821.75,-769.25,514.25,1321.5,-267.0,-4.5,1565.75,8
938.75,-693.5,-627.5,437.0,1393.75,-246.25,-83.5,1867.25,8
998.0,-985.5,-947.5,720.75,390.75,-127.5,-190.25,2001.0,8
986.5,-966.25,-808.5,534.25,1793.75,413.75,-59.25,1868.0,8
996.0,-997.5,-873.0,641.5,932.25,343.5,-360.75,2129.75,8
1007.25,-988.5,-992.0,705.25,783.25,325.0,-451.0,2134.0,8
989.25,-992.0,-990.5,867.25,146.0,-387.75,-491.0,2252.25,8
996.75,-993.25,-998.0,985.5,315.25,-499.5,-428.25,2175.25,8
987.75,-997.0,-1000.0,985.0,476.0,-622.25,-435.75,2082.5,8
982.5,-990.25,-1000.5,989.75,603.5,-698.5,-597.5,1964.5,8
978.0,-995.0,-997.5,997.0,556.25,-640.75,-691.25,1824.25,8
977.25,-991.75,-990.0,555.25,26.5,-512.0,-673.0,1659.25,8
990.0,-990.25,-993.5,134.0,979.25,-317.75,-581.0,1501.75,8
-200.0,-1001.5,-868.0,-310.25,844.25,535.25,-390.0,1379.0,8
-1013.5,-996.75,6.25,-595.25,898.25,1148.25,-321.5,1316.5,8
-1021.75,-991.75,893.25,-944.25,959.0,1600.0,104.25,1220.25,8
-1011.0,-982.25,980.75,-1019.25,868.0,1836.75,442.75,1149.0,8
-1005.5,-987.25,975.25,-1027.0,693.75,1847.0,785.25,609.5,8
-1001.25,-888.25,988.5,-1013.25,524.25,1900.0,1132.75,44.5,8
-1002.0,-461.0,996.5,-1019.0,388.5,1960.25,1325.25,-448.75,8
-1010.75,-86.0,993.0,-1022.25,240.0,1845.75,1558.5,-912.25,8
-1012.25,257.0,988.75,-1019.0,103.25,1616.0,1650.0,-1224.75,8
-1017.75,714.75,994.5,-1022.5,76.0,1430.75,1537.75,-1300.25,8
-1012.0,1008.25,991.5,-1015.5,133.25,1208.25,1392.5,-1338.25,8
-1008.75,997.0,985.75,-929.5,113.25,855.0,1277.5,-1380.0,8
-1007.5,994.0,983.25,-667.0,62.0,40.75,1272.0,-1425.0,8
-1002.25,1004.5,988.75,-376.75,-675.75,-668.75,1283.5,-1440.25,8
-1013.25,991.75,985.75,-64.5,-1651.0,-1266.0,1217.5,-1452.5,8
-994.25,985.75,985.75,166.25,-1392.5,-1502.75,1139.25,-1426.5,8
-992.0,997.25,997.0,265.5,-1312.5,-1222.75,1119.0,-1359.0,8
-999.0,995.5,994.0,323.75,-1396.5,-902.75,1156.5,-1248.75,8
-306.5,1000.0,995.25,292.75,-1537.25,-661.75,1148.5,-1163.5,8
546.25,1002.0,998.75,175.0,-1790.0,-542.25,1058.0,-1079.75,8
990.25,986.25,997.25,73.0,-1629.25,-195.0,992.0,-984.0,8
976.25,981.0,733.5,-3.25,-1156.0,162.5,1064.25,-924.75,8
975.0,991.0,500.25,-65.5,-907.75,347.0,1173.25,-874.25,8
984.5,993.75,278.75,-110.5,-976.5,588.0,1215.0,-843.0,8
991.75,998.75,70.75,-165.25,-855.5,766.25,1152.75,-808.75,8
998.5,1000.0,-110.75,-199.5,-756.25,911.25,1077.75,-778.5,8
993.5,1001.5,-323.0,-250.0,-585.5,1024.75,1099.0,-802.0,8
1009.25,1008.25,-504.75,-254.0,-418.0,986.25,1023.75,-830.25,8
1014.0,1008.5,-690.25,-280.75,-352.75,923.25,826.75,-787.75,8
1007.0,1012.0,-853.5,-290.75,-378.25,715.75,602.25,-465.25,8
1000.25,1009.75,-992.25,-269.0,-497.25,381.0,442.25,-119.25,8
1001.25,1014.0,-990.75,-278.75,-706.25,180.25,314.5,120.0,8
1010.0,913.25,-985.25,-275.5,-857.5,66.75,141.25,295.75,8
1011.25,746.75,-983.25,-282.0,-995.75,-82.75,0.75,407.25,8
1001.25,605.0,-990.0,-257.0,-1108.75,-168.0,-134.75,476.75,8
998.75,475.25,-992.5,-234.25,-1214.0,-157.5,-196.0,532.75,8
1006.5,354.75,-992.25,-211.25,-1329.75,-200.25,-239.5,554.75,8
992.0,266.75,-991.5,-197.5,-1467.75,-293.0,-375.75,561.25,8
1005.25,187.5,-981.5,-186.75,-1569.75,-365.25,-480.0,587.75,8
1008.5,104.75,-973.75,-179.25,-1586.75,-481.5,-590.25,625.5,8
998.5,38.0,-985.0,-178.25,-1623.5,-617.25,-711.0,646.5,8
1006.25,-19.5,-983.5,-137.25,-1678.75,-654.75,-731.0,660.25,8
907.5,-64.25,-997.5,-124.25,-1756.0,-663.0,-757.0,620.75,8
794.75,-100.0,-1004.75,-113.5,-1835.5,-685.0,-791.0,599.75,8
690.75,-135.5,-996.0,-86.25,-1917.0,-705.25,-845.0,592.75,8
571.5,-170.5,-946.0,-87.25,-1901.0,-737.75,-929.25,546.5,8
512.25,-187.0,-847.5,-82.75,-1846.25,-751.75,-930.75,506.5,8
456.25,-185.75,-748.75,-28.0,-1834.0,-817.75,-969.5,504.5,8
379.0,-203.25,-649.0,-18.75,-1851.0,-962.25,-1002.0,493.0,8
306.75,-217.75,-586.25,8.0,-1903.5,-1074.25,-993.75,423.25,8
247.75,-222.25,-525.5,43.0,-1969.75,-1110.75,-1011.75,345.5,8
182.0,-240.5,-447.75,24.0,-1747.25,-1096.25,-1003.75,251.25,8
133.75,-243.75,-376.0,71.0,-1417.0,-981.0,-969.0,142.5,8
80.5,-254.25,-307.75,78.5,-1206.25,-791.0,-884.75,75.0,8
53.25,-256.75,-257.0,97.25,-1131.5,-611.0,-825.25,-22.75,8
44.25,-243.25,-199.75,105.0,-1231.75,-497.0,-775.75,-83.25,8
-18.25,-253.0,-135.0,99.75,-1411.75,-384.0,-740.5,-117.5,8
-63.0,-331.25,-88.75,97.0,-1626.0,-132.75,-724.75,-120.0,8
-88.0,-587.0,-75.25,65.25,-1742.0,211.5,-695.5,112.5,8
-135.0,-997.25,-42.25,-84.75,-1005.5,718.0,-633.25,567.25,8
-225.25,-990.0,22.25,-767.75,-193.5,761.25,-504.5,600.0,8
-584.0,-989.25,145.75,-1037.25,-193.75,841.75,-248.75,621.0,8
-1004.25,-993.25,389.0,-1038.75,-171.5,993.5,178.25,655.75,8
-993.5,-990.25,825.75,-1019.0,-103.5,1056.5,587.75,634.0,8
-991.75,-990.75,989.75,-1004.75,-29.0,1122.25,611.25,575.75,8
-998.5,-993.5,992.25,-997.0,30.0,1108.5,660.5,545.25,8
-992.25,-996.25,1002.25,-998.75,27.75,1070.25,716.5,192.0,8
-993.75,-984.5,978.75,-1005.25,187.0,1015.5,736.75,-254.0,8
-1010.0,-835.75,984.5,-984.5,571.5,913.5,761.0,-621.75,8
-1010.0,-208.25,993.0,-987.5,1155.25,798.25,795.75,-1169.25,8
-1015.0,816.25,992.0,-1002.25,1592.75,660.5,823.5,-1327.25,8
-1013.0,1009.5,1001.25,-1013.5,1568.0,684.75,858.75,-1289.25,8
103.75,1010.0,1002.5,-1011.5,1568.5,859.75,869.75,-1258.5,8
993.75,1017.5,1006.0,-1004.0,1536.75,978.5,887.5,-1212.25,8
967.25,1007.0,1010.0,-1013.0,140.25,989.5,944.0,-1113.0,8
1003.25,1003.5,1011.25,2.75,-485.25,1021.75,986.25,-1003.5,8
997.5,-991.5,514.75,853.75,-466.0,-953.25,-976.25,1109.5,8
997.25,-985.25,-990.75,988.75,-421.0,-934.0,-933.25,1196.75,8
-419.5,-983.75,-995.75,981.25,-372.75,-891.0,-896.25,1216.5,8
-257.25,-996.75,-1002.75,990.0,-360.5,-866.0,-872.5,1271.5,8
995.75,-1006.25,-1006.25,991.0,-322.75,-869.25,-861.75,1364.5,8
999.5,-1010.25,-1004.0,998.25,-294.75,-849.25,-863.5,1447.25,8
990.25,-1017.75,-1007.5,986.75,-301.0,-846.75,-849.25,1469.5,8
999.75,-1013.5,-1012.5,991.0,-315.25,-889.0,-825.25,1409.0,8
997.0,-957.75,-1009.75,991.5,-392.5,-928.5,-816.75,1246.0,8
995.0,-489.75,-1014.75,983.0,-453.25,-979.75,-813.25,1150.0,8
998.5,545.5,-1021.25,1000.0,-537.0,-987.0,-827.0,789.75,8
997.0,718.25,-1025.25,997.5,-692.0,-882.25,-831.5,981.75,8
996.0,991.5,-1018.75,1006.0,-865.25,-756.5,-14.5,-211.5,8
993.75,995.0,-1015.5,989.75,-280.75,-185.0,234.75,-53.75,8
932.5,995.5,-717.25,966.25,432.75,79.5,1147.75,-574.0,8
-25.5,997.25,20.25,830.0,959.0,565.5,1133.75,-503.75,8
-1006.0,994.5,316.25,125.75,941.75,154.0,1131.25,-513.5,8
-9.5,992.5,-118.0,967.75,-907.5,-126.25,825.25,-669.0,8
992.25,1002.75,-995.5,982.75,-1080.5,-561.0,228.75,-772.5,8
990.5,997.75,-989.0,978.0,-1106.25,-444.5,635.75,-769.25,8
999.75,984.75,-225.75,593.5,-51.75,46.0,1109.25,-754.5,8
-1006.25,988.75,1005.25,-1025.75,999.5,738.75,1119.25,-713.75,8
-1015.5,1000.0,995.0,-1035.75,1123.5,954.5,1135.25,-729.0,8
-1015.75,993.5,995.5,-1025.5,1225.75,868.5,1161.75,-768.5,8
-726.5,991.25,991.75,-1024.5,1381.0,831.75,1191.25,-812.75,8
-878.5,996.0,980.75,-1023.0,1475.0,642.25,-778.25,-847.75,8
-1017.25,-995.75,995.5,-1000.0,1539.75,437.75,-763.75,-771.5,8
-273.5,772.5,995.5,-1011.5,1732.0,541.25,1262.5,-885.25,8
-685.5,1015.0,997.25,-993.0,1883.5,765.0,1290.0,-909.25,8
-166.25,1020.25,1000.75,-980.75,1614.75,777.5,1324.75,-837.0,8
-374.25,1019.0,660.75,-994.5,981.25,178.5,1362.0,-898.25,8
-117.0,1024.25,489.5,-791.5,133.25,-23.0,1402.25,535.5,8
-137.25,1012.5,-19.5,-210.75,-15.5,-701.25,1428.25,-500.0,8
-97.5,1017.0,-199.0,-104.25,-123.5,-599.25,1339.0,972.25,8
0.25,254.25,-426.5,359.75,-218.5,-877.5,972.75,841.75,8
-79.5,1012.75,-630.75,421.0,-237.0,-823.25,726.0,963.75,8
59.25,-533.75,-691.25,736.5,-184.25,-848.0,-298.5,900.75,8
-51.0,-547.75,-890.5,798.25,-87.0,-843.0,76.0,874.5,8
67.75,-1000.25,-866.25,985.0,105.75,-826.5,-592.25,852.25,8
-35.5,-1006.25,-1005.75,977.0,429.0,-817.75,-501.5,840.75,8
41.75,-1003.5,-948.75,993.25,644.0,-802.75,-631.5,858.25,8
-22.5,-996.25,-1008.5,978.0,735.25,-785.0,-624.25,875.0,8
7.25,-998.5,-978.0,980.0,812.0,-807.0,-602.75,881.75,8
-9.75,-994.5,-980.5,1001.75,825.0,-923.25,-588.0,899.75,8
-29.5,-997.25,-936.25,1003.75,882.0,-983.5,-602.25,930.75,8
-2.5,-1002.75,-903.0,992.75,960.25,-1020.75,-618.75,942.5,8
-61.75,-992.25,-863.75,993.75,987.25,-945.0,-614.75,955.25,8
-29.75,-998.25,-787.5,1006.5,944.5,-757.0,-602.75,971.75,8
-75.25,-1008.75,-782.25,989.5,968.75,-591.0,-581.5,995.5,8
-49.75,-997.0,-678.25,949.25,966.0,-500.25,-526.5,1039.0,8
-91.75,-996.5,-672.75,879.0,1008.0,-532.0,-500.5,1065.0,8
-74.75,-998.25,-580.5,795.75,1000.5,-427.5,-451.5,1091.0,8
-101.5,-1006.5,-552.25,748.5,997.5,-363.75,-325.75,1118.0,8
-102.75,-1008.75,-474.75,651.25,1092.5,-203.25,-184.5,1132.75,8
-109.5,-1007.0,-401.75,617.25,1247.0,-111.0,-91.75,1077.75,8
-121.5,-996.0,-365.5,541.0,1366.75,64.5,-73.5,1002.0,8
-116.0,-1004.0,-309.75,488.0,1383.75,75.0,-81.0,952.0,8
-134.25,-1012.75,-273.0,407.0,1390.75,78.75,-9.5,780.25,8
-121.75,-1011.5,-202.25,339.25,1366.5,73.25,-74.75,804.5,8
-161.75,-1019.5,-176.25,272.75,1451.25,86.0,46.75,614.75,8
-136.75,-1012.5,-117.25,219.25,1394.0,170.75,-53.25,650.25,8
-155.25,-985.25,-82.75,173.0,1409.0,246.25,-36.5,517.0,8
-148.25,-809.0,-40.75,111.25,1357.0,262.25,-274.25,498.5,8
-149.0,-810.0,-6.0,69.0,1070.0,179.0,-381.0,358.75,8
-159.5,-637.5,8.75,23.5,679.25,191.25,-551.5,323.25,8
-141.5,-632.25,38.0,-8.5,192.5,197.25,-738.5,275.0,8
-156.25,-498.75,58.0,-62.5,-246.0,234.5,-954.25,222.0,8
-153.0,-480.25,67.75,-116.0,-509.5,218.25,-1107.0,172.5,8
-159.5,-398.5,95.0,-160.25,-430.25,197.0,-1105.0,33.75,8
-157.25,-335.25,121.75,-196.25,-375.0,223.25,-1127.5,-17.25,8
-158.75,-287.25,118.75,-237.5,-323.0,271.25,-1056.75,-124.5,8
-149.75,-223.5,146.0,-251.25,-307.75,279.75,-1039.0,-97.0,8
-164.25,-200.75,163.0,-268.5,-292.5,231.25,-983.75,-141.5,8
-162.0,-115.5,186.0,-289.75,-335.75,173.75,-928.0,-159.25,8
-151.75,-117.75,198.25,-287.0,-461.25,135.5,-558.0,-243.0,8
-157.0,-56.25,196.25,-301.25,-524.5,211.5,-146.0,-295.25,8
-145.75,-35.5,196.75,-326.0,-565.25,236.5,191.75,-311.0,8
-136.25,30.75,202.5,-331.25,-490.5,179.75,490.5,-330.0,8
-139.25,47.5,214.0,-333.25,-422.25,105.0,780.0,-247.5,8
-135.5,74.75,226.0,-342.25,-511.0,113.0,1091.25,-194.25,8
-134.75,99.75,216.0,-343.5,-605.5,226.75,1190.0,-123.25,8
-130.5,121.0,205.5,-365.75,-705.75,377.75,1216.25,-122.0,8
-125.5,155.5,204.75,-361.0,-754.5,492.5,1235.0,-139.25,8
-111.0,147.0,189.5,-340.75,-689.25,525.0,1277.5,-177.25,8
-109.25,169.5,195.0,-348.25,-595.5,548.25,1253.25,-166.25,8
-106.25,173.25,205.25,-364.0,-407.5,534.75,1222.75,-161.5,8
-94.5,198.75,184.0,-378.5,-181.5,499.25,1230.25,-206.0,8
-112.25,207.75,168.75,-387.5,-30.5,463.75,1072.0,-249.5,8
-121.75,237.25,176.75,-353.0,58.5,404.5,865.5,-300.25,8
-106.0,235.0,189.75,-326.75,108.5,341.0,714.75,-327.75,8
-98.75,246.25,178.5,-326.25,189.75,337.0,748.25,-369.25,8
-106.0,245.75,179.0,-298.0,258.25,348.0,830.75,-415.25,8
-99.75,236.25,183.75,-291.25,266.0,355.0,878.5,-440.0,8
-92.5,269.5,182.25,-280.25,288.75,402.75,865.25,-416.25,8
-86.25,261.0,174.0,-258.75,283.5,441.25,667.75,-439.5,8
-75.5,244.25,170.5,-222.0,414.25,397.0,507.75,-499.5,8
-60.0,242.75,197.75,-152.75,867.25,295.25,473.25,-618.25,8
-38.5,6.0,239.75,-75.5,1339.25,56.5,-203.25,-289.25,8
-116.5,-1032.5,-146.5,319.5,593.25,-1152.0,-1318.5,706.0,8
-121.5,-1021.25,-984.0,1001.25,2.25,-1265.5,-1536.25,737.75,8
994.75,-1006.0,-1002.0,996.5,284.25,-1330.25,-1784.75,751.0,8
990.5,-1016.75,-1012.75,992.75,374.75,-1358.5,-2018.0,735.5,8
994.5,-1015.25,-1003.75,977.5,421.75,-1392.75,-2067.75,799.25,8
1005.0,974.5,-1004.0,954.25,411.0,-1444.0,-1902.75,-1153.5,8
1023.75,971.25,-1000.75,967.5,322.5,-1463.75,-1728.75,-1163.25,8
1014.0,976.75,-1003.0,985.25,235.0,-1474.75,-1551.25,-1204.75,8
1007.25,988.0,-1020.0,984.5,93.0,-787.5,-1390.25,-1275.0,8
888.25,998.0,-642.5,996.0,475.5,-30.75,-681.25,-1335.5,8
254.0,995.75,16.5,310.25,1714.5,347.5,-243.0,-1337.5,8
-436.75,1004.5,499.0,-592.5,1580.0,226.25,-80.75,-1346.25,8
-1006.0,1010.5,855.75,-994.5,1504.5,195.0,-74.0,-1442.75,8
-1013.25,997.0,1000.0,-997.0,1477.0,175.0,-72.75,-1542.0,8
-1019.5,984.75,1007.0,-1003.75,1532.25,88.5,-70.25,-1668.5,8
-1013.5,988.75,1008.75,-1004.0,1569.75,104.5,-60.25,-1555.0,8
-1015.0,1007.5,1009.25,-1003.25,1590.25,156.75,-38.0,-1649.0,8
-1013.0,1028.25,995.5,-1001.5,1611.75,160.75,-34.25,-1495.25,8
-1001.25,1024.5,997.5,-993.5,1643.5,183.0,-32.75,-1524.25,8
-1009.5,973.5,995.75,-1003.25,1691.5,194.25,-29.5,-1579.5,8
-1009.25,795.25,1002.25,-1011.75,1755.25,265.25,-25.0,-1537.25,8
-1014.75,800.5,988.25,-1019.0,1702.5,275.0,-10.25,-1443.75,8
-1020.25,581.75,997.5,-1014.0,1568.5,326.5,-1.75,-1163.0,8
-1028.75,644.5,990.25,-1022.0,1444.5,433.75,20.0,-1127.75,8
-1043.5,475.0,977.5,-1038.5,1365.5,502.25,30.0,-999.5,8
-1022.0,498.0,981.0,-1038.5,1283.25,561.25,29.0,-1036.75,8
-1009.25,363.5,975.5,-1038.5,1021.0,598.75,283.0,-770.25,8
-1014.0,374.0,997.5,-1020.0,714.0,712.0,640.25,-587.0,8
-1016.75,325.0,1015.25,-1012.0,385.5,752.25,703.5,-561.0,8
-1022.0,269.75,1013.25,-1019.5,103.0,732.75,544.25,-477.0,8
-1023.25,272.25,1014.25,-1015.5,-2.25,734.75,433.25,-411.75,8
-1029.0,201.0,1013.25,-1023.75,-60.0,700.75,493.5,-349.0,8
-1036.5,200.75,1003.25,-1016.0,-162.5,700.25,710.5,-284.75,8
-920.5,125.25,1012.25,-1021.75,-154.25,613.0,952.0,-158.75,8
-821.75,133.0,1001.25,-1020.5,-225.25,498.25,1081.5,-107.5,8
-642.75,73.5,1001.25,-1015.0,-443.75,392.0,1089.5,-40.75,8
-536.0,83.5,1004.75,-1020.75,-674.75,328.5,1008.25,-21.75,8
-410.25,49.75,985.5,-1015.75,-873.0,250.25,871.5,-21.75,8
-356.25,62.0,993.0,-869.75,-1103.25,226.0,849.75,15.0,8
-259.25,52.25,985.5,-747.75,-1245.5,230.75,918.25,74.25,8
-235.5,42.25,963.0,-606.0,-1442.75,170.75,974.0,35.75,8
-186.5,51.0,906.25,-487.5,-1549.0,199.75,1018.25,97.5,8
-127.5,17.25,823.25,-380.25,-1681.75,209.0,957.5,242.0,8
-105.5,25.0,747.5,-238.25,-1829.0,267.0,936.5,240.75,8
-66.0,-65.25,666.5,-172.0,-1827.5,360.5,932.0,518.5,8
-62.5,-759.75,604.0,-284.0,-506.0,1171.5,1059.0,1554.5,8
-238.5,-981.5,610.0,-1004.75,-225.25,1303.0,1271.25,1627.0,8
-1014.0,-982.5,842.25,-1007.75,-206.75,1330.5,1764.75,1661.0,8
-1020.75,-980.5,990.0,-1004.75,-152.0,1387.0,1904.0,1676.25,8
-1023.75,-992.75,991.5,-1005.25,-170.75,1452.75,1988.25,355.75,8
-1032.0,1015.75,992.0,-1000.5,-224.25,1509.0,1989.25,-110.5,8
-1041.25,1025.25,988.0,-994.25,-290.25,1651.0,1936.75,-31.75,8
-1035.75,1024.0,996.0,-985.5,-161.0,1715.25,1892.75,-94.75,8
-1029.0,1037.0,989.0,-990.5,156.25,1633.75,1859.25,15.5,8
-1020.5,1030.5,992.0,-992.5,-78.75,925.25,1872.5,114.75,8
-456.25,1028.25,442.25,-266.25,-727.0,-205.5,1879.0,114.75,8
129.25,1029.75,-13.75,429.75,-264.75,-629.75,1246.75,172.5,8
669.5,1024.0,-800.5,997.25,17.5,-687.75,446.0,665.25,8
998.5,1009.0,-996.75,1002.25,56.5,-748.75,193.25,483.5,8
996.75,390.5,-993.25,1003.5,63.5,-769.0,217.25,1318.5,8
1009.5,-384.0,-997.5,1002.5,46.25,-848.5,234.75,884.25,8
984.75,-595.5,-1005.5,1007.5,49.25,-875.25,151.75,1496.5,8
989.75,-1001.25,-1007.0,994.0,-18.0,-939.75,41.75,1817.25,8
1004.0,-998.25,-1002.0,976.75,-98.75,-1019.75,-32.0,2039.5,8
989.25,-998.75,-1014.0,976.25,-124.25,-1120.25,-49.0,2076.25,8
993.75,-998.25,-1013.25,974.5,-57.75,-1386.25,32.25,2070.5,8
986.5,-996.0,-1015.25,989.5,2.75,-1290.75,122.0,2044.25,8
993.0,-1003.5,-1008.25,985.5,27.25,-707.25,110.25,2028.0,8
996.0,-1009.75,-1020.75,991.0,93.0,-910.5,68.0,2055.75,8
999.0,-1010.5,-1017.0,994.5,167.5,-1601.5,4.75,2003.5,8
997.0,-1015.5,-1004.75,990.0,242.0,-1644.5,-58.5,1871.5,8
985.5,-1000.75,-996.5,994.75,307.25,-1676.75,-34.25,1786.75,8
1001.75,-1009.25,-1003.0,1001.5,334.5,-1723.25,56.0,1567.75,8
1000.25,-1013.0,-1007.75,1010.0,330.0,-1750.5,70.25,1402.0,8
998.0,-1010.0,-1001.5,1005.5,324.75,-1719.75,-66.75,1571.0,8
1002.75,-1001.5,-1004.5,1010.0,332.0,-793.75,-312.25,1650.5,8
1008.75,-993.25,-998.25,1007.5,355.25,309.75,-488.5,1531.25,8
1008.25,-998.25,-997.75,993.25,342.25,477.5,-508.75,1445.25,8
999.5,-1002.25,-990.25,979.5,345.5,512.0,-395.0,1337.5,8
1012.5,-1006.0,-998.75,985.0,306.5,431.5,-289.75,1393.0,8
995.75,-1000.75,-999.25,990.75,252.0,285.5,-373.0,1286.0,8
947.25,-993.75,-1002.5,983.0,262.0,244.75,-448.5,1090.75,8
869.0,-988.5,-1003.5,986.25,300.75,286.5,-433.5,902.75,8
761.25,-954.25,-879.75,997.25,372.5,327.25,-454.0,987.0,8
699.25,-898.25,-784.0,976.0,374.0,383.75,-502.5,909.5,8
603.75,-736.75,-673.5,851.5,385.25,171.75,-673.75,633.5,8
534.0,-702.5,-601.25,727.25,438.5,-105.25,-852.0,531.25,8
453.5,-585.5,-500.0,599.75,512.0,-307.0,-781.0,548.0,8
386.0,-521.25,-428.5,500.75,598.5,-528.0,-809.25,617.5,8
329.75,-420.75,-344.5,390.25,709.0,-563.25,-1094.0,467.5,8
257.75,-340.5,-276.25,310.25,623.0,-651.5,-1397.25,320.75,8
212.75,-274.75,-214.25,236.5,437.25,-798.0,-1349.5,193.5,8
166.0,-191.0,-136.0,152.5,197.0,-913.75,-1271.75,54.75,8
123.75,-159.75,-97.25,66.5,19.75,-939.25,-1177.25,-4.25,8
65.75,-78.25,-46.5,-8.5,-105.0,-713.75,-901.5,72.25,8
37.5,-34.25,8.0,-68.0,-323.0,-529.75,-785.75,41.75,8
5.75,18.75,45.5,-141.0,-442.25,-217.25,-847.75,39.75,8
-38.5,46.25,77.5,-188.75,-404.5,47.5,-748.5,75.0,8
-57.25,107.25,109.0,-232.0,-451.75,143.25,-391.5,92.5,8
-71.5,133.0,137.5,-282.75,-546.0,275.75,-59.25,-28.0,8
-85.5,169.25,159.25,-306.25,-523.0,347.5,-5.0,-368.5,8
-111.75,211.5,185.5,-345.5,-552.25,464.25,-135.25,-710.25,8
-125.75,225.0,219.0,-383.0,-574.5,531.0,-297.25,-916.5,8
-147.0,256.75,240.75,-399.75,-587.75,624.25,-348.25,-1170.75,8
-153.0,262.25,248.25,-426.25,-610.5,820.0,-309.25,-1307.75,8
-165.25,269.25,274.0,-434.0,-668.75,906.75,-264.0,-1179.5,8
-197.0,276.25,293.75,-446.25,-690.0,944.0,-245.25,-1401.5,8
-201.75,288.25,291.5,-457.75,-692.5,889.75,-453.25,-1299.0,8
-198.75,302.75,305.75,-453.75,-712.75,777.25,-824.0,-869.5,8
-201.0,319.0,297.5,-462.0,-680.75,718.75,-850.5,-806.0,8
-197.5,320.25,298.25,-473.75,-610.25,634.25,-825.25,-833.5,8
-191.75,337.5,309.5,-476.0,-592.5,520.25,-749.25,-780.75,8
-195.5,348.75,309.0,-456.0,-580.5,450.75,-747.25,-641.25,8
-188.75,356.5,307.0,-453.75,-558.5,338.5,-655.75,-508.75,8
-175.5,353.5,309.25,-470.25,-530.75,248.5,-644.75,-400.5,8
-178.25,336.5,316.25,-461.75,-543.25,255.75,-749.75,-375.25,8
-189.25,329.5,308.75,-446.25,-650.0,297.25,-830.5,-399.5,8
-196.5,323.25,298.5,-440.75,-807.0,408.75,-834.25,-368.75,8
-197.0,313.5,287.5,-443.25,-986.5,538.5,-843.0,-374.25,8
-194.0,303.0,290.25,-431.25,-1034.25,660.0,-876.5,-455.0,8
-191.5,304.5,279.75,-421.5,-1044.5,775.75,-923.25,-590.5,8
-187.75,315.0,272.0,-413.5,-1075.5,848.0,-966.0,-718.75,8
-189.5,338.5,279.0,-384.0,-1063.0,869.75,-908.5,-873.75,8
-178.0,338.5,274.75,-358.5,-1106.5,889.5,-859.75,-886.75,8
-159.25,326.75,261.25,-341.0,-1226.75,879.75,-870.75,-648.25,8
-165.5,302.5,231.0,-327.0,-1324.5,906.0,-926.75,-649.5,8
-158.25,281.0,227.25,-317.25,-1348.25,907.0,-978.25,-914.25,8
-159.0,274.75,205.5,-289.5,-1461.5,897.25,-1023.75,-716.75,8
-165.25,251.75,198.0,-274.75,-1650.75,910.25,-849.5,-451.75,8
-168.25,243.5,190.5,-263.5,-1683.75,926.5,-477.25,-592.75,8
-190.0,217.5,175.5,-260.5,-1597.0,966.25,33.75,-598.5,8
-182.75,210.5,178.0,-253.75,-707.25,980.75,535.0,-382.75,8
-170.25,193.5,167.0,-238.5,-33.25,974.0,1078.5,-204.5,8
-143.25,181.5,171.5,-231.25,138.0,956.5,1322.5,-170.5,8
-110.0,185.25,148.5,-219.0,173.75,963.25,1396.5,-131.25,8
-92.5,170.5,140.75,-197.75,277.0,1004.75,1408.0,-104.0,8
-69.25,149.0,131.0,-172.5,260.5,1021.0,1324.5,-54.75,8
-53.0,153.0,125.5,-166.0,441.75,949.25,1239.25,-54.5,8
-40.0,198.75,115.25,-163.5,745.25,824.75,1199.25,-91.75,8
-48.25,189.75,108.5,-163.5,1376.5,667.75,1234.0,-136.0,8
-65.25,175.25,109.5,-159.25,2283.5,527.75,1213.25,-305.75,8
-92.5,165.5,96.25,-136.5,2329.0,374.5,1217.5,-490.75,8
-93.75,135.75,89.5,-145.5,2312.75,119.25,1324.0,-445.0,8
-74.25,128.5,81.5,-135.25,2292.25,-211.5,1457.0,-322.0,8
-86.0,109.25,75.0,-135.5,2218.5,-664.25,1580.25,-347.25,8
-96.25,103.0,73.25,-133.5,1928.5,-961.75,1492.5,-210.5,8
-92.0,101.0,68.5,-131.5,1589.25,-973.0,1297.75,-45.5,8
-107.0,98.5,48.0,-125.5,1325.5,-1003.75,331.0,62.25,8
-114.5,122.0,45.75,-112.5,1271.75,-1006.75,-517.0,342.75,8
-100.5,122.5,51.0,-116.75,1018.75,-1000.75,-951.5,489.75,8
-92.75,101.0,59.0,-90.75,512.5,-989.0,-905.75,374.5,8
-92.75,71.75,56.75,-78.0,281.25,-985.75,-803.75,344.25,8
-99.25,69.5,41.75,-72.75,194.0,-963.0,-688.25,280.75,8
-85.5,66.25,39.75,-56.75,294.5,-920.75,-620.25,201.5,8
-79.75,60.75,31.0,-39.5,388.75,-867.25,-651.5,168.25,8
-70.75,45.25,36.5,-27.0,465.75,-812.0,-727.75,110.25,8
-59.75,39.0,36.25,-22.25,667.25,-760.5,-701.5,71.75,8
-85.25,35.5,51.0,-10.0,729.0,-692.5,-707.75,35.25,8
-71.25,13.0,57.5,-9.75,594.75,-639.5,-718.0,2.5,8
-51.5,36.5,38.0,2.25,151.5,-600.25,-655.25,-64.5,8
-59.75,83.0,65.25,30.5,-139.0,-570.75,-570.5,-75.25,8
-54.25,73.75,75.75,56.5,-192.0,-531.25,-580.5,-75.5,8
-42.25,-998.25,95.75,134.25,-125.75,-843.0,-1859.75,963.0,8
3.5,-1002.25,-496.5,992.25,-1299.75,-1602.5,-1876.75,1137.5,8
992.25,-933.25,-1004.75,987.5,-1014.0,-1604.0,-1881.5,1155.75,8
1008.0,-826.0,-1002.75,984.5,-1084.5,-1610.75,-1876.75,1206.75,8
1008.0,-833.0,-998.75,990.75,-1331.0,-1437.0,-1909.25,1290.5,8
1010.0,-917.25,-998.75,986.0,-1707.25,-1238.75,-1892.0,1365.75,8
1014.75,-962.5,-1011.5,974.0,-2336.75,-1116.5,-1852.75,1387.5,8
999.25,-1002.0,-1013.25,970.5,-3062.75,-1085.75,-1837.75,1366.25,8
60.0,-172.75,-344.5,784.25,-1245.75,590.25,-645.5,640.0,8
-1000.25,54.0,632.0,-725.5,-1236.25,1066.25,-613.75,644.75,8
-989.25,994.75,897.75,-1013.0,-1281.0,1181.5,175.25,-286.25,8
-995.0,1002.25,1001.5,-995.25,-1296.25,1293.75,190.75,-302.5,8
-999.5,1004.0,988.25,-986.25,-1363.75,1469.5,192.75,-550.25,8
-1008.0,1016.5,986.0,-990.75,-1267.75,1646.5,158.75,-654.25,8
-1016.0,1009.25,986.0,-987.0,-1178.75,1779.5,171.0,-624.75,8
-1011.0,1014.25,991.25,-987.5,-1037.75,1886.75,148.75,-556.5,8
-1023.5,1011.0,1009.0,-974.25,-911.5,1915.0,97.5,-638.75,8
-999.75,1005.5,1011.0,-986.75,-949.5,1989.75,6.75,-863.75,8
-1001.25,1000.25,1009.5,-991.75,-990.75,2078.75,-64.75,-1038.5,8
-999.5,990.25,1014.5,-985.25,-1069.25,2199.75,335.5,-1054.0,8
