0,1,2,3,4,5,6,7,label
-54.25,-112.0,-59.75,-80.25,-43.5,-67.0,-78.0,-97.5,9
-24.5,-90.5,-64.25,-67.0,-38.0,-54.5,-80.75,-101.0,9
-103.75,-76.5,-79.25,-77.0,-39.0,-66.75,-72.25,-102.5,9
-189.75,-90.0,-76.0,-84.25,-48.5,-97.5,-70.75,-114.0,9
-177.25,-60.5,-68.25,-85.0,-56.5,-98.75,-68.5,-111.5,9
-125.25,-73.0,-77.5,-100.0,-67.0,-120.75,-64.75,-106.25,9
-117.75,-96.0,-76.5,-92.0,-83.25,-119.5,-64.25,-93.75,9
-94.5,-85.75,-70.25,-99.25,-72.5,-60.75,-61.5,-71.0,9
-33.5,-110.75,-57.25,-101.25,-41.25,-40.75,-56.5,-63.5,9
45.0,-90.75,-56.5,-87.5,-13.25,-16.0,-54.5,-40.0,9
114.25,-51.5,-44.5,-89.75,7.5,-7.5,-38.5,-11.75,9
121.75,-31.5,-35.75,-74.25,16.25,-17.5,-35.5,-1.5,9
91.25,11.5,-19.0,-62.5,27.25,9.0,-33.75,12.75,9
86.75,33.5,-21.0,-41.75,34.75,10.5,-24.5,28.0,9
68.0,35.0,-29.0,-36.5,49.5,16.75,-9.25,30.25,9
12.25,18.25,-20.75,-34.0,44.75,26.75,3.0,46.75,9
-33.75,-8.0,-17.5,-13.0,25.5,28.0,11.5,50.5,9
-93.25,-13.25,-9.25,-15.0,22.25,35.5,25.5,40.5,9
-155.0,-46.0,-13.25,-12.25,26.75,40.25,29.5,63.25,9
-193.75,-58.75,-3.75,-1.75,34.0,36.5,38.0,64.5,9
-203.75,-31.25,9.0,6.25,55.25,31.5,55.75,67.25,9
-211.0,-42.25,12.0,6.25,69.75,57.5,52.75,73.5,9
-193.25,-44.75,10.25,12.5,61.0,54.75,55.75,80.5,9
-167.25,-61.75,-2.5,4.25,57.25,63.0,60.75,92.5,9
-125.75,-58.75,-3.5,-1.5,61.75,77.75,64.5,94.25,9
78.75,-22.5,-3.75,16.0,78.5,71.5,74.5,105.25,9
271.75,4.0,-3.25,14.0,80.0,67.75,79.25,100.25,9
340.25,40.75,1.25,15.25,76.25,68.0,82.0,102.5,9
388.0,64.5,10.0,16.75,58.75,80.5,83.25,99.5,9
371.5,91.5,15.5,13.0,35.5,71.0,83.5,88.5,9
329.75,117.75,18.75,15.75,31.5,57.0,75.25,100.5,9
273.25,112.25,23.75,16.75,26.5,55.25,75.25,93.75,9
186.25,102.75,23.25,26.0,28.25,61.0,80.75,95.0,9
96.75,100.0,25.5,21.75,30.0,53.0,79.0,105.0,9
-2.25,65.0,20.0,23.25,38.0,50.0,78.5,99.25,9
-161.0,53.25,15.0,25.0,38.5,67.75,83.0,96.5,9
-276.25,63.0,20.75,19.5,26.5,53.0,71.0,86.0,9
-252.75,74.75,7.5,12.5,25.0,43.75,56.5,75.75,9
-181.0,70.75,12.0,3.5,26.25,34.25,55.0,75.75,9
-76.5,69.0,11.0,4.0,24.75,34.5,51.75,68.0,9
18.75,69.75,12.5,10.75,28.25,51.75,51.5,65.0,9
73.0,41.0,13.0,11.75,15.0,46.75,40.5,46.0,9
98.75,27.75,14.5,5.5,15.0,29.5,39.0,75.25,9
117.0,13.75,16.5,7.0,9.75,16.0,24.75,86.75,9
128.25,-8.25,15.75,12.0,1.75,13.5,31.75,44.5,9
128.0,1.0,11.25,13.75,6.25,-12.75,42.0,36.75,9
114.25,34.75,3.5,2.5,-9.25,-65.0,30.0,34.0,9
39.5,55.5,12.5,-3.5,-22.25,-60.5,27.25,50.0,9
-43.75,64.5,12.75,-8.5,-31.0,-18.5,18.75,33.0,9
-92.75,62.25,10.5,-8.25,-37.0,-10.75,23.75,-15.75,9
-138.5,50.25,11.5,-3.75,-43.5,3.5,27.25,-41.5,9
-163.25,19.0,19.5,-6.0,-31.5,8.0,23.25,-9.75,9
-173.25,17.75,13.0,-1.75,-32.25,4.0,24.75,13.75,9
-118.75,14.75,7.25,-7.75,-39.0,39.0,27.0,-15.25,9
-88.5,-1.0,14.25,-10.75,-33.75,50.5,26.25,-31.0,9
-132.25,9.25,4.5,-19.75,-36.25,45.75,20.0,-81.25,9
-157.75,11.5,4.5,-18.75,-23.75,42.75,24.5,-86.5,9
-130.75,18.0,3.0,-14.25,-24.75,25.0,27.0,-29.0,9
-76.75,-13.5,1.25,-18.5,-8.25,2.75,17.75,-16.75,9
-66.25,-27.75,-4.25,-21.5,10.5,-82.5,3.25,-11.75,9
-34.5,-20.75,-3.75,-20.25,24.0,-135.5,1.75,-5.75,9
4.0,-19.75,-3.75,-17.25,30.25,-54.25,9.0,2.0,9
15.5,-13.5,-16.5,-18.0,25.5,-9.0,13.25,18.0,9
89.0,-16.5,-2.25,-11.0,35.5,-40.5,18.5,61.0,9
145.5,-4.0,3.0,-20.75,45.0,-8.25,14.0,88.25,9
149.25,-12.0,-3.5,-20.25,66.5,8.5,5.5,56.75,9
111.25,-6.75,-7.25,-10.75,65.5,3.5,5.75,34.75,9
17.75,12.0,0.0,-14.25,62.5,9.25,15.5,-9.0,9
-83.75,17.25,-1.0,-20.0,60.0,18.25,13.0,-62.5,9
-132.25,21.0,-7.75,-22.75,46.5,36.75,10.25,-111.25,9
-113.5,2.25,-7.5,-18.75,57.5,29.25,9.25,-172.75,9
-81.0,-16.25,-11.5,-20.0,55.5,30.0,13.75,-189.5,9
-39.25,-24.5,-13.5,-4.25,49.25,20.0,21.25,-120.75,9
-22.75,-17.5,-25.5,-8.75,49.25,40.25,22.5,-51.75,9
-1.25,-13.0,-15.25,-14.25,55.5,76.0,28.75,-59.75,9
15.5,-23.0,-1.75,-8.75,62.25,98.0,29.5,-52.5,9
20.5,-21.0,-9.75,-14.0,48.5,86.75,32.75,-60.75,9
29.0,-25.0,-2.25,-21.5,49.0,64.25,27.0,-63.0,9
-12.5,-9.5,-5.0,-23.25,40.25,56.5,24.5,-57.5,9
-73.0,-12.5,-7.5,-16.25,30.5,30.0,22.0,-70.0,9
-157.5,-16.5,12.25,-22.5,29.75,-37.75,21.25,-62.5,9
-164.0,-20.75,-11.75,-22.75,19.0,-66.0,24.0,-70.5,9
-105.0,-18.5,-10.5,-22.0,15.75,6.25,11.25,-70.75,9
-109.5,15.25,8.75,-16.0,8.25,18.25,8.75,-59.0,9
-135.75,23.0,-0.5,-12.5,13.0,67.25,15.0,-42.0,9
-107.0,30.5,5.5,-14.25,4.5,101.75,14.5,-56.5,9
-51.75,26.5,3.25,-14.25,-5.25,85.0,17.25,-71.25,9
-53.0,11.25,7.75,-3.75,3.25,94.5,15.75,-72.75,9
-40.75,6.75,-7.5,-4.25,8.25,22.25,23.25,-77.0,9
-1.75,-7.25,-11.0,-7.25,4.75,-33.0,18.0,-64.5,9
65.75,-19.5,5.0,-2.75,-6.75,-38.75,14.0,-69.75,9
94.75,-39.0,0.5,1.75,-4.25,-40.75,22.75,-67.25,9
88.75,-59.75,-4.25,-0.25,-12.0,-61.75,22.5,-68.25,9
65.25,-43.5,2.75,-3.5,-15.25,-2.5,29.0,-68.5,9
-6.5,-31.25,9.5,2.0,-26.75,30.0,26.75,-64.25,9
-12.75,-11.5,8.5,-1.0,-33.5,29.25,22.0,-60.25,9
19.0,17.25,10.25,-12.0,-41.25,72.5,30.25,-57.75,9
11.25,15.25,-1.25,-12.0,-47.75,50.5,30.75,-66.25,9
-36.25,11.0,4.75,-8.5,-40.0,46.25,35.5,-53.0,9
-52.75,5.5,12.5,1.75,-50.75,62.0,33.75,-54.5,9
-25.0,8.75,4.25,0.25,-49.75,36.75,28.5,-66.5,9
40.25,12.0,4.0,-11.25,-54.75,18.0,25.25,-64.25,9
67.0,40.25,-2.25,-9.5,-61.5,31.0,18.0,-67.0,9
70.5,28.75,-14.5,-8.5,-68.5,3.25,24.0,-58.0,9
53.5,21.5,-19.0,-17.25,-94.0,-5.25,25.0,-60.5,9
65.5,48.0,-16.25,-18.0,-103.25,-9.5,10.0,-71.75,9
84.75,35.25,-25.5,-8.5,-92.75,-10.75,20.25,-60.75,9
28.5,32.75,-19.25,4.25,-72.25,10.75,12.25,-47.0,9
29.25,8.0,-23.75,-10.25,-44.5,9.5,1.5,-32.75,9
-10.0,-11.0,-42.5,-16.5,-17.75,17.5,-1.25,-18.25,9
-59.5,-6.0,-19.75,-20.25,10.25,20.0,3.25,-3.25,9
-73.75,2.25,-25.5,-27.25,32.0,16.75,23.0,2.0,9
-102.0,-8.25,-26.5,-23.75,33.5,31.0,11.5,14.75,9
-101.0,-14.75,-30.0,-27.75,47.0,67.5,6.0,67.75,9
-121.25,-19.0,-33.75,-19.25,70.5,87.75,13.75,111.25,9
-91.75,0.5,-27.25,-33.5,79.5,105.25,13.0,87.75,9
-40.25,-4.75,-37.5,-32.75,95.25,112.5,23.5,88.75,9
-29.0,-10.0,-25.25,-26.5,112.25,82.75,22.5,84.75,9
-11.5,11.5,-32.5,-35.0,120.5,45.0,15.5,57.5,9
86.25,13.0,-33.5,-28.75,127.5,-5.5,12.75,49.75,9
176.25,24.25,-38.0,-48.0,133.25,1.75,10.5,1.5,9
165.0,-18.0,-50.25,-53.75,125.25,20.0,13.25,-23.25,9
101.75,-34.75,-42.75,-55.25,131.0,27.5,11.0,9.75,9
48.75,-39.0,-50.0,-56.25,133.25,51.75,13.25,87.0,9
-13.5,-30.25,-48.0,-42.5,131.5,58.25,12.5,109.0,9
-130.5,-8.75,-36.5,-48.25,145.0,97.75,12.0,95.25,9
-166.5,-10.5,-36.25,-48.25,135.75,80.5,13.75,109.0,9
-192.0,-7.5,-38.5,-53.5,134.75,72.5,1.0,132.0,9
-211.75,-31.25,-32.0,-38.75,117.25,89.75,-2.75,160.5,9
-157.5,-6.25,-31.5,-32.0,115.0,68.5,2.25,133.75,9
56.25,-5.25,-36.75,-40.0,119.25,93.25,10.0,128.75,9
318.0,-18.0,-27.25,-18.5,116.75,84.0,6.25,111.0,9
357.5,-28.5,-26.25,-22.5,116.0,78.25,11.25,103.0,9
217.25,-15.0,-26.5,-37.5,113.5,86.5,17.75,108.75,9
93.0,-1.75,-24.75,-34.25,127.25,101.75,7.25,77.75,9
124.25,-14.0,-35.5,-33.75,118.25,93.75,5.25,79.5,9
185.0,-0.5,-33.0,-43.5,117.25,78.0,13.75,108.25,9
155.0,-26.5,-21.75,-33.0,120.5,84.75,23.0,145.25,9
143.25,-29.75,-21.0,-34.0,122.5,57.0,25.5,151.0,9
70.75,-32.25,-19.0,-30.0,118.25,24.75,28.75,149.5,9
-71.25,-29.0,-13.75,-25.25,109.75,-5.25,24.75,149.0,9
-172.0,-13.25,-12.0,-28.5,107.25,-27.0,23.25,155.25,9
-277.25,-16.5,-8.25,-22.75,104.0,-5.75,15.25,194.75,9
-321.25,-28.25,-9.25,-33.25,110.5,47.25,16.5,213.5,9
-135.0,-31.0,-15.0,-34.75,111.5,50.25,14.25,199.0,9
59.0,-1.5,-21.25,-29.5,115.75,49.25,6.0,181.0,9
128.75,-14.0,-26.5,-19.5,120.5,53.0,22.5,163.25,9
262.5,-23.0,-24.5,-28.0,114.0,46.75,27.75,138.0,9
264.0,-23.25,-28.0,-22.0,125.25,48.0,23.25,119.25,9
137.75,-10.5,-26.25,-18.25,126.0,45.25,26.25,72.25,9
136.5,-4.25,-16.75,-10.0,119.75,44.5,35.5,69.5,9
70.0,4.25,-12.25,1.0,102.25,31.5,30.5,132.0,9
-97.5,6.75,-12.0,-17.0,87.5,13.0,25.5,134.25,9
-129.5,0.25,-17.5,-6.25,69.5,-1.75,29.5,113.0,9
-175.0,10.25,-7.0,-20.75,47.5,30.25,28.5,114.75,9
-212.0,-5.75,-15.0,-30.75,56.5,41.5,24.75,107.0,9
-240.25,-10.5,-14.0,-25.25,34.0,35.25,23.5,98.5,9
-205.0,-9.25,-4.25,-31.75,0.0,14.75,26.5,82.0,9
69.5,-2.5,-3.75,-20.25,1.5,-9.75,27.25,51.75,9
131.75,11.0,2.0,-22.25,-9.0,27.25,32.25,61.0,9
37.0,23.0,1.0,-30.25,-15.25,23.0,42.75,67.5,9
-29.5,8.0,-2.0,-14.75,-11.0,14.5,45.0,46.5,9
-119.75,-4.25,2.75,-12.75,-20.5,37.0,47.25,61.0,9
-78.5,34.5,6.0,0.0,-20.0,36.25,50.5,47.75,9
1.75,43.75,11.25,11.0,-17.0,32.5,48.0,31.5,9
4.0,32.25,10.0,-6.25,-25.25,-4.75,54.5,41.0,9
-26.25,30.75,1.75,-3.75,-28.0,-54.75,43.75,48.25,9
-40.5,37.75,9.0,-4.75,-35.75,-62.5,37.5,44.5,9
-190.5,43.75,6.75,-14.0,-28.75,-39.75,39.25,35.5,9
-464.75,40.75,1.0,-12.75,-21.0,-15.5,36.0,42.75,9
-584.5,13.0,2.5,-5.25,-28.75,-2.5,35.75,43.5,9
-532.75,22.25,15.0,3.75,-36.25,6.5,33.75,42.0,9
-370.75,34.25,16.25,4.25,-46.25,15.5,44.5,29.5,9
-226.0,15.0,11.25,9.5,-52.0,28.5,50.0,29.25,9
-69.25,4.0,15.75,4.0,-59.25,5.0,43.5,22.5,9
39.25,3.25,7.75,4.5,-61.5,10.5,48.25,25.75,9
169.5,0.25,10.5,-0.5,-55.0,14.0,49.25,33.75,9
354.5,-14.0,35.0,-3.25,-52.25,-0.25,45.0,27.25,9
400.75,-2.5,30.75,-2.0,-61.5,6.0,47.0,33.5,9
524.0,-6.25,26.25,0.0,-68.75,1.25,53.5,71.25,9
568.75,-4.25,30.0,-4.25,-75.25,1.25,41.0,125.0,9
392.75,11.75,20.25,-8.0,-73.75,-15.0,37.75,127.75,9
309.5,29.5,17.0,2.5,-73.0,-7.0,35.25,115.75,9
407.75,34.75,27.25,-4.75,-66.5,2.25,26.5,91.75,9
467.75,17.5,21.5,-2.25,-72.5,10.5,21.5,28.25,9
349.5,10.25,14.25,2.5,-70.0,11.75,8.75,-13.0,9
146.25,1.0,23.5,4.5,-55.0,2.25,23.0,-57.0,9
-32.5,4.5,11.5,6.0,-50.5,-3.0,25.25,-143.5,9
-111.0,11.5,9.75,1.5,-60.0,-10.25,-2.25,-223.0,9
-158.5,12.25,9.5,-2.5,-56.75,-10.25,14.75,-152.0,9
-171.25,18.25,3.75,2.0,-39.5,-31.5,24.75,-23.5,9
-205.0,18.0,9.5,-2.5,-31.0,-24.75,22.0,11.25,9
-217.0,-2.75,-1.25,-11.0,-33.0,-10.25,29.25,65.25,9
-173.0,7.0,3.0,-12.75,-43.75,0.5,23.75,85.0,9
-232.25,44.75,-2.5,-18.75,-32.5,14.0,25.25,74.25,9
-337.0,70.25,0.0,-10.5,-30.5,15.25,33.0,76.0,9
-355.25,56.25,2.25,-10.0,-21.0,22.0,23.5,18.75,9
-305.75,20.0,-3.25,-17.75,-25.5,14.0,22.5,8.25,9
-258.25,-2.0,6.5,-21.0,-22.0,19.0,21.25,22.0,9
-145.75,-21.5,7.5,-21.75,-17.75,12.25,24.0,-7.25,9
-75.5,-25.5,0.25,-14.25,-25.5,6.75,21.25,5.25,9
-53.5,-14.75,-7.75,-18.25,-18.75,8.75,11.75,-11.5,9
-38.25,-0.5,-0.25,-15.0,-24.5,4.0,27.75,-15.0,9
-79.5,-8.25,-4.0,-12.5,-23.25,3.25,20.0,-8.25,9
-116.0,1.75,-3.75,-12.0,-25.75,3.0,21.25,-23.75,9
-124.75,26.0,-1.0,-9.5,-24.25,10.0,36.0,-20.0,9
-114.5,21.75,-9.5,-14.5,-18.0,4.75,28.5,-27.75,9
-109.5,-6.75,-4.75,-12.0,-15.75,5.5,28.5,-18.75,9
-63.0,-9.75,-8.75,-8.5,-12.5,10.0,33.0,-19.5,9
-3.0,-21.75,-7.5,-5.75,-14.5,23.0,38.0,-24.5,9
70.0,-27.0,5.75,-20.25,-9.0,30.5,40.0,-23.5,9
91.25,5.0,3.0,-10.75,-10.75,31.25,27.5,-33.5,9
49.25,2.75,-2.0,-18.5,-21.0,18.5,25.25,-33.75,9
27.5,-25.0,-3.75,-29.0,-12.75,0.75,27.75,-27.0,9
16.0,-54.5,-4.0,-19.25,1.75,-11.25,16.25,-40.75,9
-19.0,-54.25,0.5,-26.0,9.25,-18.0,19.75,-51.5,9
-51.0,-30.25,-1.25,-17.75,5.0,-13.25,14.0,-45.0,9
-80.0,-5.75,-5.75,-16.75,-3.75,-7.75,2.25,-43.75,9
-76.75,-18.25,-0.5,-19.0,-20.75,19.75,8.25,-43.75,9
0.75,-19.0,-3.25,-26.5,-21.25,49.0,14.0,-43.25,9
47.0,3.25,-9.5,-23.0,-28.75,33.5,6.5,-47.0,9
101.75,0.5,-5.75,-17.5,-32.0,-7.5,1.25,-45.75,9
173.5,0.25,-8.75,-25.75,-31.5,-39.25,8.0,-52.0,9
157.5,4.0,-4.75,-24.25,-37.0,-30.75,11.5,-57.25,9
23.25,21.25,-3.75,-24.75,-29.0,-51.25,7.25,-66.75,9
-131.25,1.5,-3.75,-22.25,-32.25,-70.25,5.25,-58.5,9
-223.0,-16.5,-7.0,-21.0,-30.5,-2.0,8.5,-54.0,9
-295.25,-5.75,-3.25,-7.5,-28.0,16.0,15.5,-60.25,9
-247.75,14.5,3.5,-4.75,-34.25,38.5,9.75,-63.0,9
-136.5,8.75,-4.0,-2.0,-23.75,23.5,-5.0,-82.25,9
-87.0,6.25,-5.5,-9.25,-7.0,-6.0,5.25,-75.5,9
-40.75,16.0,-22.25,-14.75,10.75,14.5,10.0,-87.25,9
-8.5,8.75,-25.75,-9.0,35.5,11.75,-0.25,-91.25,9
70.5,9.75,-36.5,-19.75,53.25,5.0,11.0,-47.75,9
118.5,27.25,-40.0,-12.75,67.0,0.0,4.0,-31.0,9
86.5,41.5,-45.0,-12.0,85.25,51.25,-10.25,-45.25,9
13.5,43.0,-54.5,-25.5,87.25,68.5,-5.75,-52.25,9
-38.5,51.0,-48.5,-35.5,75.75,72.25,-6.75,-74.5,9
2.75,55.5,-54.0,-38.0,80.75,73.0,-8.0,-92.75,9
13.5,37.5,-34.25,-34.25,81.25,62.5,-6.5,-99.75,9
8.25,3.0,-38.0,-26.0,91.25,78.25,-1.75,-124.25,9
25.5,-12.25,-40.75,-22.0,102.25,77.25,-3.25,-86.75,9
31.25,-55.0,-34.75,-31.5,100.75,71.5,-3.25,5.75,9
-34.25,-78.5,-39.75,-26.75,105.25,60.5,-4.75,12.5,9
-85.5,-70.75,-27.75,-21.5,91.5,69.25,-14.0,-19.25,9
-57.5,-77.25,-44.0,-24.75,91.25,62.0,-17.5,-4.5,9
-41.25,-68.5,-35.5,-19.75,90.75,58.75,-17.0,-24.25,9
-21.75,-52.75,-33.0,-23.5,88.25,61.25,-14.75,-44.25,9
38.25,-28.25,-41.25,-22.25,95.5,49.5,-4.75,-68.75,9
145.5,-31.25,-28.5,-28.75,99.0,59.0,2.5,-115.75,9
218.25,-27.75,-35.0,-20.75,94.5,61.0,6.75,-128.25,9
259.75,-21.0,-28.0,-7.25,86.25,55.25,12.25,-32.0,9
241.25,-7.75,-27.75,-17.5,90.75,46.75,6.75,-29.75,9
54.5,20.25,-29.75,-16.0,87.5,46.5,6.0,-40.5,9
-101.0,22.25,-18.0,-8.5,77.75,37.0,13.5,12.25,9
-178.5,23.5,-16.75,-6.75,77.5,33.5,20.25,-11.25,9
-187.0,23.5,-19.75,-23.25,72.75,16.25,16.0,23.75,9
-133.25,32.25,-7.75,-36.5,57.25,15.0,9.25,33.25,9
-53.75,31.75,-5.0,-31.25,71.25,22.0,26.25,55.0,9
133.25,20.75,-6.75,-22.5,75.5,21.0,22.25,45.5,9
240.0,10.0,-5.5,-15.25,76.25,40.0,14.25,24.5,9
277.75,6.25,-8.0,-22.25,67.75,28.75,26.75,33.0,9
217.25,2.0,-7.5,-18.75,60.0,32.25,27.5,19.0,9
109.0,3.75,-0.5,-25.5,55.75,34.5,27.5,31.75,9
104.75,22.75,-3.25,-20.25,49.5,29.0,27.75,-5.25,9
96.5,27.0,-7.75,-31.0,49.75,22.0,25.0,-7.25,9
43.5,28.0,-4.25,-29.5,53.5,19.75,40.75,-3.25,9
5.0,25.5,-17.0,-9.25,54.25,43.0,39.25,-10.25,9
1.0,3.0,-10.75,-20.75,37.75,33.25,26.25,-22.5,9
-29.25,0.0,-11.25,-20.0,43.25,30.25,30.25,-54.5,9
-36.75,4.25,-19.25,-15.0,27.75,38.75,22.75,-101.25,9
-42.0,-10.25,-7.75,-5.75,23.5,33.75,24.75,-58.25,9
-57.0,-7.75,-5.25,-7.5,29.5,33.0,35.0,42.0,9
-53.5,1.5,-4.75,-10.75,12.5,38.0,33.75,51.5,9
-33.0,-0.75,4.5,-5.75,-0.5,45.25,25.0,60.25,9
-16.5,-0.5,7.75,-10.5,-16.25,33.25,26.25,61.75,9
-26.5,4.0,-2.5,-10.5,5.0,31.25,31.75,61.75,9
-2.75,-4.5,6.0,-19.25,10.0,-8.25,25.5,65.25,9
16.25,-10.0,7.5,-18.25,-5.5,-38.5,17.0,64.5,9
-7.75,-4.0,-7.0,-6.75,-6.0,8.75,17.25,60.25,9
-63.5,-1.5,-8.75,-10.5,-1.0,14.75,24.0,57.5,9
-153.0,-6.75,-1.25,-11.25,7.25,0.75,20.5,69.25,9
-188.5,1.75,10.0,-5.0,8.25,-0.5,13.75,65.25,9
-155.0,24.25,7.25,-21.0,6.25,-0.5,8.75,78.0,9
-72.0,8.75,2.5,-37.75,12.25,11.25,15.75,97.0,9
29.75,-10.0,-0.25,-33.75,14.5,0.5,13.5,131.75,9
111.0,-17.0,-7.25,-34.5,20.0,5.0,1.25,126.25,9
205.75,-20.5,-17.0,-41.75,34.25,16.75,4.75,98.0,9
202.25,-13.5,-3.75,-33.0,46.25,41.25,3.0,93.0,9
86.0,-12.0,-2.75,-28.5,57.5,37.75,7.0,58.5,9
-23.75,8.75,-11.25,-30.75,55.75,16.25,20.75,40.0,9
-89.5,18.75,-4.0,-10.75,63.25,22.25,20.25,14.5,9
-105.0,7.25,-4.75,-14.0,80.75,21.0,16.5,-25.0,9
-76.5,5.25,-3.75,-22.75,82.5,21.25,22.0,13.0,9
-33.25,-23.25,1.5,-10.5,84.0,16.75,12.75,91.5,9
-38.0,-25.25,-14.25,-7.75,73.25,22.25,17.5,105.25,9
5.5,-17.5,-22.5,-4.25,67.25,25.5,30.25,85.25,9
50.25,-14.5,-12.75,-11.0,68.25,9.75,26.5,83.5,9
86.5,-4.0,-19.75,-16.0,64.0,9.5,27.5,79.5,9
104.25,-7.0,-8.5,-12.75,73.75,0.25,28.0,58.75,9
54.5,4.0,-15.75,-13.25,76.0,-2.5,25.25,62.0,9
43.75,4.25,-31.0,-17.5,73.0,5.75,23.75,119.0,9
10.25,-0.25,-17.0,-25.0,63.75,-17.5,24.0,114.75,9
-8.0,-1.0,-15.75,-20.0,59.25,-12.0,19.25,112.0,9
-14.0,8.0,-16.75,-13.75,46.5,21.0,10.5,126.75,9
-19.25,10.0,-18.5,-14.75,34.25,32.75,11.75,116.5,9
4.25,5.75,-14.25,-10.25,26.0,23.5,9.75,127.5,9
12.25,4.0,-12.25,-3.25,18.5,3.0,7.0,104.75,9
16.5,-8.25,-7.75,-13.25,25.25,6.5,22.25,93.75,9
2.25,-10.0,-7.75,-8.5,8.75,12.5,19.0,97.5,9
-4.75,-6.0,-20.25,-9.5,4.5,30.5,15.75,93.25,9
-10.0,-2.25,-5.25,-14.5,-5.0,35.5,18.0,88.25,9
-42.25,-0.25,-11.5,-14.0,-6.5,8.25,27.0,98.25,9
-70.75,9.0,-8.25,-28.0,-13.5,20.75,32.75,105.5,9
-79.0,26.75,0.75,-19.25,-41.5,20.0,25.75,86.75,9
-77.5,0.25,-6.25,-17.0,-51.25,16.0,21.75,87.0,9
-32.5,7.5,1.75,-18.25,-59.5,24.25,16.5,102.25,9
1.0,16.75,-4.0,-12.5,-63.25,23.0,19.75,78.5,9
22.5,0.75,-3.5,-14.25,-67.75,14.75,17.25,46.25,9
40.75,14.0,0.0,-20.5,-74.5,11.75,32.0,57.75,9
-21.75,12.25,-3.25,-11.25,-61.0,21.0,36.0,50.25,9
-64.5,6.75,8.75,-13.0,-52.5,10.25,33.25,30.75,9
-83.25,4.75,8.5,-10.25,-56.5,-9.25,37.0,36.5,9
-70.25,19.75,14.5,-2.25,-42.5,17.5,37.0,36.75,9
-29.0,28.25,21.75,-16.75,-43.5,61.5,31.0,24.75,9
-65.25,4.75,4.5,-12.5,-52.0,45.0,24.5,17.5,9
-133.5,-24.75,-2.0,-4.75,-46.5,23.75,22.5,13.0,9
-164.0,-45.5,0.5,-7.0,-35.0,21.25,16.75,0.0,9
-160.75,-24.75,2.5,-20.5,-14.5,10.0,21.5,0.0,9
-117.0,-8.5,3.5,-15.25,-22.5,-16.75,19.75,1.5,9
-65.0,0.75,3.5,-14.0,-31.25,-46.5,27.25,5.0,9
-49.5,-0.5,-2.25,-10.0,-21.75,-67.0,34.25,8.25,9
-27.0,-5.75,-4.0,7.0,-24.25,-24.75,36.25,0.5,9
-3.0,-10.75,-2.75,-8.0,-27.25,5.75,38.25,3.25,9
15.0,-18.5,-2.0,-6.5,-20.25,-4.75,28.25,15.75,9
11.75,-4.0,-5.5,-19.25,-7.25,20.75,33.25,17.25,9
-9.25,22.25,-3.5,-29.25,-7.0,23.0,31.75,9.75,9
-6.75,27.0,-14.75,-24.25,9.75,24.25,21.0,8.0,9
-22.25,20.75,-12.25,-18.0,13.0,32.0,30.0,5.25,9
-34.25,18.75,-10.5,-23.0,5.75,20.25,29.5,2.0,9
-45.75,1.0,-7.25,-34.0,21.0,19.75,22.0,-14.25,9
-73.75,-19.25,6.5,-18.0,18.25,11.5,17.25,-49.5,9
-72.5,-24.75,8.75,-19.25,26.5,15.0,22.5,-44.75,9
-47.25,-7.0,3.25,-20.75,35.75,32.25,22.25,-1.0,9
13.5,0.5,-11.25,-13.0,35.0,16.0,18.5,-1.0,9
52.5,19.25,-4.5,-13.25,47.5,1.5,24.0,-18.25,9
52.75,32.5,-5.25,-8.5,45.25,-3.5,22.75,-34.5,9
38.5,18.75,-4.0,-9.5,40.75,2.5,22.25,-33.75,9
4.75,13.5,1.0,-18.0,44.75,32.25,23.5,-37.25,9
0.5,-1.0,-8.25,-19.25,39.0,41.5,36.5,-20.75,9
-34.25,1.0,-2.25,-13.0,57.0,51.75,40.25,28.5,9
-69.75,4.0,-7.25,-17.0,60.75,51.5,36.0,39.5,9
-60.5,0.75,-21.25,-22.5,59.25,43.25,26.0,41.25,9
16.0,19.75,-14.25,-20.25,61.0,54.5,23.75,-1.25,9
108.0,8.0,-8.5,-4.0,49.75,29.25,30.5,-46.0,9
100.75,-11.0,-1.0,4.25,63.0,19.75,31.0,-39.0,9
7.0,6.5,2.25,-5.25,52.25,29.0,37.5,-67.5,9
-109.25,-2.5,-5.25,-4.75,41.5,28.0,40.25,-134.25,9
-159.0,-1.25,6.0,-7.0,42.5,31.75,41.25,-122.75,9
-149.75,-0.25,3.5,-13.5,35.25,26.5,37.25,-33.0,9
-93.75,-10.25,-5.5,-8.0,34.0,10.0,30.25,-18.5,9
-38.25,-7.0,-10.25,-11.25,26.25,17.25,26.25,-27.0,9
1.25,-9.75,-11.75,-19.75,28.25,45.0,27.0,-10.0,9
25.25,-1.25,-17.0,-16.25,24.0,43.0,26.25,-19.5,9
-10.5,8.5,-24.25,-23.25,27.75,34.75,18.0,-11.75,9
-29.5,12.0,-26.5,-17.0,25.0,26.75,21.25,17.25,9
-47.75,22.0,-18.25,-21.5,29.0,27.5,27.5,46.25,9
-26.25,19.75,-14.75,-28.0,31.5,28.25,25.5,18.75,9
-7.75,2.5,-21.5,-29.75,16.5,24.5,20.5,-3.0,9
-13.75,-5.25,-18.0,-25.5,25.0,29.25,20.0,-24.75,9
0.75,-6.0,-16.5,-24.5,29.5,32.75,22.75,-47.5,9
-5.75,16.75,-15.25,-23.25,32.5,27.75,22.0,-51.0,9
4.25,29.5,-20.0,-18.75,29.75,30.5,25.5,-99.0,9
28.5,27.75,-17.25,-32.5,20.5,37.0,30.5,-114.5,9
9.75,34.5,-15.5,-22.25,16.25,23.75,27.25,-43.0,9
-1.5,18.75,-26.75,-17.0,25.75,14.75,25.75,-7.0,9
13.75,9.0,-25.25,-22.5,24.5,26.0,28.0,0.5,9
13.0,16.25,-19.75,-9.0,31.0,42.75,30.75,39.5,9
12.25,14.0,-12.75,-9.0,28.75,31.25,28.25,1.5,9
-1.25,-11.0,3.75,-6.5,22.0,32.0,13.25,-13.0,9
-25.25,-20.5,-10.75,-11.5,35.0,24.5,15.75,-29.0,9
-43.25,-4.5,-12.75,-7.75,32.75,17.25,12.0,-71.75,9
-37.0,3.25,-3.25,-2.0,33.75,23.25,9.0,-94.5,9
-2.75,-4.25,-3.0,-12.0,24.0,12.5,18.25,-158.0,9
39.5,-3.75,-5.25,-13.0,27.25,7.25,8.75,-200.0,9
61.0,-19.0,-5.25,-8.75,21.75,-4.5,12.0,-126.25,9
80.25,-39.5,8.5,-6.75,14.0,6.25,18.0,-60.0,9
90.0,-19.75,1.5,-6.0,16.5,31.25,34.0,-91.0,9
42.5,3.0,-3.25,-16.0,12.5,39.25,33.25,-71.75,9
-11.25,4.0,-7.0,-26.75,2.5,44.75,25.0,-79.0,9
-29.0,7.0,-4.5,-16.5,7.25,51.5,36.5,-96.5,9
-31.75,12.75,-4.25,-11.25,13.0,60.25,32.25,-96.5,9
-26.25,15.0,-7.25,-20.75,6.25,50.25,32.5,-102.75,9
8.0,19.0,-2.25,-8.0,15.25,30.25,28.25,-101.25,9
29.75,12.5,-3.0,-10.25,13.75,32.5,8.5,-103.5,9
9.75,2.25,-3.25,-16.75,17.5,30.75,12.5,-100.5,9
-21.0,11.5,4.0,-9.5,8.25,26.75,19.5,-100.5,9
-33.0,-0.25,-0.75,-17.5,6.5,31.0,8.0,-62.5,9
-20.25,-6.25,-3.5,-7.5,12.5,24.25,6.25,-37.25,9
-14.75,-8.5,-1.25,-4.75,-4.75,20.25,10.0,-32.75,9
-14.75,-1.75,2.25,-8.5,-1.25,21.75,15.25,-39.75,9
-1.5,-0.25,3.25,-8.25,-5.25,21.75,21.25,-50.5,9
-28.75,-8.5,0.5,-10.25,-7.5,23.25,29.0,-59.0,9
-65.5,1.5,7.75,-13.75,11.25,23.75,25.75,-54.0,9
-78.75,6.0,-2.25,-16.0,-13.0,30.0,21.75,-69.25,9
-79.25,3.25,1.0,-11.25,-11.25,30.25,34.0,-89.25,9
-65.25,8.0,4.25,-26.0,0.0,22.5,32.25,-43.5,9
-46.25,23.0,6.75,-18.25,-30.25,21.75,36.5,1.0,9
-18.75,19.25,-0.25,-20.5,-15.5,14.5,32.0,8.25,9
-11.0,14.25,2.25,-18.75,-13.5,41.0,39.0,18.25,9
-16.5,23.5,6.75,-8.0,-11.5,50.0,41.5,21.25,9
-30.25,18.75,3.5,-15.5,1.25,30.5,18.5,22.25,9
-40.5,-0.75,7.0,-17.5,-0.75,17.75,25.0,40.5,9
-20.75,-10.25,-2.5,-17.25,3.25,14.5,21.25,50.0,9
-27.0,-12.5,-7.5,-15.75,-6.0,12.75,15.75,49.75,9
-47.0,-22.0,-12.25,-29.5,-15.25,-29.25,16.5,52.25,9
-8.25,-15.75,-9.5,-21.75,-15.25,9.5,12.25,70.5,9
17.5,-15.5,-22.75,-27.5,-19.5,10.5,23.25,86.0,9
23.5,-3.25,-17.0,-28.0,-21.75,-3.25,24.25,120.25,9
30.0,9.25,-4.0,-21.0,-4.0,25.5,20.25,112.5,9
26.5,6.25,-2.0,-30.5,8.0,5.75,10.25,78.25,9
28.0,7.5,-1.0,-21.25,16.0,10.25,16.5,80.0,9
43.75,4.0,-10.75,-16.25,16.0,-7.0,18.0,57.0,9
58.0,-11.75,-11.0,-21.0,12.25,-7.0,13.0,35.25,9
53.75,-8.25,-7.5,-19.0,22.75,1.75,5.5,23.25,9
54.25,-4.75,-14.5,-16.25,23.0,-6.5,5.75,-32.5,9
-7.5,-6.5,-15.0,-23.5,18.5,12.0,12.25,-76.0,9
-53.0,-11.0,-7.0,-24.5,18.5,21.25,7.25,-5.75,9
-33.5,-13.5,-18.5,-18.0,8.25,32.0,20.0,44.0,9
-1.75,7.75,-12.5,-20.5,9.75,61.75,24.75,22.25,9
24.25,18.5,-10.5,-26.5,15.0,78.75,12.5,51.5,9
-45.0,12.25,-11.0,-31.25,17.0,74.0,15.0,41.75,9
-104.5,-9.25,-8.25,-30.5,30.75,74.25,17.5,25.25,9
-77.75,-12.75,-15.25,-21.5,36.0,52.75,23.25,27.25,9
-73.0,-12.0,-23.5,-21.0,41.5,5.75,25.75,27.75,9
-108.5,-12.0,-29.5,-23.75,45.0,-38.25,37.0,33.75,9
-87.25,-3.0,-14.5,-19.25,48.75,-48.0,40.75,26.0,9
-9.5,-16.25,-13.25,-22.5,38.25,-42.75,13.25,20.25,9
22.5,-10.5,-20.75,-12.25,27.5,-35.0,18.75,32.25,9
-11.5,-9.25,-26.25,-13.75,37.5,3.75,19.0,24.0,9
-73.75,-7.5,-23.25,-25.75,51.25,2.25,12.0,8.25,9
-117.0,0.75,-25.75,-18.25,58.0,11.25,9.75,19.0,9
-105.5,5.25,-24.25,-7.0,42.75,36.75,9.75,10.75,9
-109.0,6.75,-18.25,-12.75,41.5,17.25,17.0,15.0,9
-105.25,18.25,-24.5,-13.75,43.0,13.75,19.0,28.25,9
-63.25,22.25,-22.25,-8.0,42.25,16.75,17.5,33.0,9
8.0,17.5,-13.25,-12.75,50.5,15.25,18.25,34.5,9
55.5,15.5,-8.75,-21.25,45.25,3.75,27.0,47.5,9
56.25,7.75,-8.75,-27.25,55.25,-1.25,27.0,62.75,9
67.75,17.75,-5.5,-12.25,65.75,43.75,23.0,65.25,9
32.25,-3.75,4.5,-14.5,55.0,57.5,19.5,56.0,9
33.0,-10.25,15.75,-10.0,62.5,39.0,16.75,53.25,9
107.25,-0.75,14.0,-11.75,65.75,63.0,14.75,72.25,9
122.0,-11.25,10.25,-9.75,57.25,80.5,9.0,42.25,9
91.5,-9.5,-3.25,-5.25,54.75,69.5,12.5,52.75,9
98.25,-2.75,-10.25,-7.75,44.75,49.25,7.0,80.25,9
68.5,-4.25,-2.25,-14.0,41.5,62.5,9.75,73.0,9
-11.0,3.5,-5.0,-25.75,39.25,92.0,7.25,88.75,9
-77.75,7.75,2.5,-15.25,39.0,82.0,5.0,65.25,9
-61.75,-5.25,4.25,-12.0,33.0,102.5,6.25,73.0,9
-23.25,-14.25,-7.0,-13.75,41.75,130.5,15.75,73.75,9
-13.5,-10.5,1.0,-18.25,42.5,89.5,19.0,73.75,9
-45.0,-13.0,1.0,-10.75,43.0,66.25,-2.5,103.25,9
-147.5,-34.75,-7.5,-12.25,56.0,56.0,6.5,103.0,9
-175.75,-27.75,-4.5,-18.25,54.0,-4.25,8.5,86.0,9
-137.0,-4.5,-4.5,-14.25,40.75,-98.5,8.75,96.25,9
-118.25,4.0,-2.75,-10.5,32.25,-152.0,2.25,96.75,9
-54.0,9.25,0.0,-21.0,26.0,-74.75,1.25,65.75,9
-6.75,-6.25,-5.0,-22.75,6.25,9.75,9.0,61.0,9
0.75,-8.0,-11.75,-15.25,6.25,18.0,2.25,56.25,9
-12.25,-3.75,-6.75,-20.0,4.0,23.75,9.75,70.5,9
-60.0,-17.75,-12.25,-18.0,4.75,31.25,-14.0,54.5,9
-47.0,-20.5,-16.0,-27.25,9.75,24.0,-16.5,39.25,9
-31.0,-10.75,-23.75,-16.5,20.5,23.75,4.0,46.25,9
-41.5,-7.5,-21.25,-17.25,22.0,20.5,2.75,49.0,9
-57.0,-18.75,-12.5,-24.75,36.75,24.5,1.5,51.75,9
-30.5,-9.75,-19.5,-21.5,39.75,34.75,0.5,43.25,9
50.5,19.0,-18.75,-26.75,30.25,39.75,-4.25,39.75,9
92.0,50.75,-3.0,-13.75,28.75,35.5,8.75,32.75,9
93.75,58.25,7.25,-13.0,19.25,15.75,19.0,47.0,9
79.0,46.0,13.0,-10.5,15.25,-2.0,18.0,51.5,9
48.5,44.25,16.5,-7.5,2.25,-42.75,18.0,63.25,9
-0.5,32.0,16.75,-0.25,6.25,-26.5,21.5,69.75,9
-36.75,7.5,20.5,6.5,11.75,17.25,42.75,63.25,9
-66.0,-28.75,20.25,0.0,-0.5,20.25,36.25,70.25,9
-7.0,-7.5,4.0,-7.75,4.25,27.25,31.75,76.25,9
57.0,19.25,-3.0,-13.25,8.0,23.75,32.25,81.25,9
10.0,-15.5,3.25,-8.25,-4.25,23.0,29.5,97.0,9
-1.0,-24.75,11.25,-17.75,-8.75,14.25,40.0,98.25,9
10.75,-26.0,11.0,-18.0,-3.75,-25.75,31.5,86.25,9
13.0,-45.75,8.5,-21.75,0.0,-51.5,36.0,96.0,9
16.0,-58.0,9.5,-20.25,2.75,-34.25,36.0,90.0,9
60.25,-68.0,1.0,-12.25,-1.0,-11.75,29.75,89.25,9
69.25,-35.75,3.0,-13.0,0.75,-10.5,33.5,101.5,9
29.75,11.5,11.25,-14.25,16.25,-2.25,41.0,108.75,9
44.75,43.25,2.75,-13.25,12.75,16.0,50.75,115.25,9
-20.25,51.5,9.25,-28.25,10.25,8.75,41.75,114.0,9
-19.5,29.0,17.25,-22.75,9.5,-10.25,26.75,102.75,9
48.25,36.25,23.75,-26.25,-6.5,-20.0,39.0,99.25,9
63.0,46.5,20.5,-34.0,-7.5,-24.75,46.25,89.75,9
16.75,22.0,14.5,-20.5,-23.5,-14.75,45.5,94.0,9
-131.5,-8.0,20.25,-24.5,-18.25,-24.5,56.25,100.5,9
-225.25,-20.75,7.75,-25.25,-16.25,-44.5,40.0,85.0,9
-208.0,5.0,2.0,-20.75,-31.25,-38.25,33.0,83.25,9
-68.25,39.25,-2.5,-10.25,-34.0,-28.5,43.5,83.25,9
37.5,23.75,-15.75,-9.75,-24.0,-35.0,45.0,89.5,9
97.25,-3.25,-25.5,-7.0,-16.5,-21.75,50.75,92.0,9
34.0,-25.25,-41.0,-7.5,-7.0,-7.75,31.25,92.0,9
-171.75,-21.75,-46.25,-20.0,0.5,-10.0,37.25,93.75,9
-218.5,8.25,-43.5,-22.75,5.5,-7.0,42.25,85.75,9
-256.25,19.5,-43.5,-20.25,15.25,-8.25,31.75,89.75,9
-304.0,2.75,-51.0,-11.25,2.25,1.75,35.0,95.0,9
-242.75,-24.5,-54.75,-10.75,24.0,9.0,16.5,94.75,9
-168.25,-15.25,-53.75,-14.5,39.75,15.75,33.0,83.0,9
7.5,-19.25,-45.75,-18.25,51.25,26.25,26.75,91.75,9
157.75,-14.25,-44.75,-15.75,67.0,30.0,33.25,92.25,9
209.5,-10.0,-52.5,-7.25,56.25,39.75,35.25,82.25,9
218.5,29.0,-48.75,-1.5,61.5,39.5,27.75,83.0,9
155.25,75.25,-55.0,3.5,66.25,48.75,31.5,84.5,9
185.0,67.5,-46.5,1.75,73.75,60.75,23.75,74.0,9
329.75,62.0,-44.5,2.5,71.75,50.0,43.25,71.0,9
410.75,29.25,-41.25,2.25,81.25,52.25,34.5,79.25,9
419.25,6.75,-42.25,-11.25,77.5,55.25,30.0,60.75,9
317.0,6.25,-42.0,-12.75,71.5,51.0,28.5,56.75,9
158.75,10.0,-25.5,-18.25,72.75,30.0,33.25,60.25,9
34.5,-0.25,-24.5,-35.0,69.0,2.0,36.0,62.25,9
-60.0,-0.75,-20.0,-40.5,73.25,-8.25,27.25,56.0,9
-83.5,7.5,-13.0,-44.0,76.25,-63.0,34.0,45.75,9
-100.0,6.75,-6.75,-41.75,79.0,-74.75,29.25,57.0,9
-78.0,18.75,-10.5,-49.75,81.25,32.0,43.0,60.25,9
-93.5,13.0,-10.5,-45.25,86.25,60.5,36.75,55.0,9
-162.25,-9.0,-22.5,-54.75,87.0,35.5,27.5,33.5,9
-238.5,-1.75,-16.25,-57.5,74.25,59.75,39.0,8.75,9
-190.25,18.5,-10.25,-45.5,77.25,62.25,48.75,-20.75,9
-91.0,15.5,-14.75,-41.5,79.0,40.75,38.25,-38.0,9
-8.25,12.0,-9.25,-33.25,73.25,23.0,33.75,-51.25,9
71.75,26.75,-8.0,-44.75,65.75,19.0,32.0,-79.0,9
69.25,4.25,-13.25,-50.0,54.25,46.75,16.0,-60.75,9
5.75,-18.0,-14.75,-41.0,39.75,62.0,21.0,-24.75,9
-149.5,-32.25,-9.5,-43.25,19.5,44.5,25.0,-41.0,9
-170.25,-55.0,-29.25,-44.25,23.0,38.75,-0.25,-45.5,9
-125.5,-37.0,-24.25,-24.75,19.25,33.75,0.5,-55.25,9
-93.75,-18.75,-13.5,-20.25,21.0,50.5,9.5,-76.25,9
0.25,-17.75,-29.0,-15.0,21.5,54.5,3.25,-73.0,9
107.0,-5.0,-26.25,-5.75,27.0,30.25,3.75,-88.25,9
184.0,0.25,-21.75,-6.5,29.25,58.5,8.0,-79.0,9
220.5,-4.75,-16.5,10.5,22.75,63.75,24.0,-80.75,9
183.5,-4.5,-8.25,27.75,21.75,51.0,24.25,-78.75,9
50.0,9.0,-7.0,27.75,-7.25,60.0,20.75,-62.5,9
-91.75,19.0,-10.75,19.0,1.25,64.0,30.5,-31.0,9
-143.75,5.25,-19.25,11.5,10.25,63.0,24.25,-45.75,9
-124.75,2.25,-21.25,16.25,-1.0,56.5,13.25,-69.75,9
-117.5,-16.25,-17.25,-0.75,10.0,48.75,13.0,-85.5,9
-25.75,-10.0,-17.75,2.75,12.0,48.75,15.0,-124.5,9
25.0,-12.0,-5.25,8.25,10.0,46.0,21.25,-114.75,9
66.25,-30.5,-4.75,-6.25,8.5,35.0,28.0,-135.0,9
122.0,-11.0,-4.0,0.5,14.25,38.75,20.5,-217.0,9
107.5,-6.75,6.25,-5.5,13.0,27.0,9.0,-203.0,9
64.75,-14.25,-4.0,-13.75,12.5,28.5,8.75,-94.75,9
5.5,-0.5,4.25,-15.5,8.75,38.0,13.5,-114.0,9
-7.25,15.5,-1.75,-18.75,11.75,37.25,15.75,-108.0,9
-54.25,19.25,-13.5,-27.0,12.25,44.25,17.5,-81.5,9
-79.0,30.25,-13.75,-28.75,9.0,41.75,23.75,-99.5,9
-70.25,25.0,-21.0,-23.0,21.75,48.75,29.25,-73.0,9
-75.25,-2.25,-18.5,-30.75,12.0,46.0,25.0,-92.0,9
-42.0,-21.75,-17.0,-23.5,24.5,48.25,15.0,-73.75,9
-15.0,-34.25,-10.25,-35.25,28.25,39.0,19.75,-70.75,9
33.75,-28.25,-2.5,-25.75,26.0,25.0,19.0,-69.75,9
41.5,-14.25,-2.0,-8.5,31.75,38.25,12.0,-57.25,9
43.5,-12.5,-3.25,-20.75,20.75,34.0,11.5,-58.75,9
54.25,-5.25,-13.0,-14.25,33.5,38.25,19.5,-51.75,9
8.5,5.25,-8.0,-6.75,23.75,38.5,13.75,-45.0,9
-35.5,13.75,-1.75,-13.25,18.0,43.75,12.75,-52.5,9
-43.5,34.0,-6.25,-17.75,43.5,54.0,27.0,-38.75,9
-32.75,13.0,-7.25,-29.75,34.75,35.75,22.25,-34.5,9
-62.0,-10.75,-3.75,-38.75,28.75,34.75,24.25,-41.5,9
-43.75,-12.0,4.5,-30.5,24.25,31.75,17.5,-23.0,9
9.25,-14.25,5.25,-27.25,18.5,33.25,8.0,-25.5,9
65.25,5.0,4.75,-25.25,18.75,31.75,25.25,-11.5,9
143.0,33.5,-1.5,-12.5,20.75,37.25,27.25,-15.25,9
145.75,51.5,0.0,-1.5,2.75,34.0,16.25,-19.75,9
105.25,30.75,6.0,-0.5,-7.25,13.75,12.5,-21.5,9
8.25,13.0,5.5,-12.25,-2.25,17.75,7.0,-18.75,9
-111.5,9.25,9.0,-8.75,-25.0,31.25,17.25,-14.5,9
-215.25,-20.75,4.5,-8.25,-32.75,19.5,29.5,-12.0,9
-299.75,-64.5,11.0,-5.5,-33.25,0.75,10.25,3.5,9
-291.5,-62.5,10.5,-9.0,-41.75,12.0,4.5,5.25,9
-273.25,-54.75,3.0,-13.5,-35.25,4.75,9.5,4.0,9
-258.75,-36.5,9.25,-9.5,-42.0,1.5,2.5,-5.75,9
-150.0,6.25,11.25,-13.75,-36.0,9.5,10.0,-7.25,9
-126.0,21.25,9.0,-17.5,-28.25,12.5,8.5,-34.0,9
-152.75,19.0,13.5,-19.75,-29.25,12.5,12.25,-26.25,9
-53.25,14.75,16.25,-6.25,-23.0,18.25,18.0,5.25,9
55.0,-1.5,5.25,-11.75,-17.0,18.0,15.25,-1.25,9
185.0,-14.0,-4.25,-24.75,-14.0,14.25,19.5,13.75,9
303.5,-3.0,4.5,-26.0,-16.75,20.75,18.0,14.0,9
380.0,-4.5,9.25,-22.25,-11.75,12.0,9.5,6.75,9
444.0,4.5,8.5,-24.5,-11.25,11.75,6.25,8.5,9
409.0,6.0,7.0,-20.0,-24.5,3.5,13.5,1.0,9
257.25,28.25,4.0,-17.25,-19.0,9.0,8.0,6.25,9
82.75,20.5,5.75,-11.0,-17.0,13.25,1.25,9.5,9
-30.5,2.5,-1.5,-14.5,-14.5,22.5,13.25,21.0,9
-79.75,17.75,-4.25,-16.5,-13.0,8.25,10.25,13.75,9
-190.25,-8.0,1.0,-12.25,-19.0,-1.25,4.75,18.5,9
-235.25,14.5,-12.75,-17.5,-5.5,22.0,6.5,23.75,9
-231.25,6.5,-4.75,0.5,5.0,15.25,3.0,30.5,9
-240.25,-24.25,-11.0,-1.0,14.75,11.25,3.5,42.25,9
-234.0,-20.0,-10.75,0.75,11.0,4.0,17.25,32.25,9
-243.75,-5.5,8.75,-5.25,9.25,5.75,13.0,44.0,9
-182.75,1.0,-13.0,-15.75,20.75,31.75,19.75,40.0,9
-108.0,-19.75,-12.75,-5.75,28.5,59.0,27.5,42.0,9
-68.25,7.75,5.0,-8.75,42.5,58.5,25.0,52.75,9
-147.75,20.0,-3.0,-1.5,44.0,49.75,26.25,42.0,9
-211.5,38.5,-5.0,-8.75,37.25,34.75,33.75,46.0,9
-149.25,57.25,5.25,-8.5,29.75,10.5,30.75,46.25,9
-85.0,54.5,-10.25,-8.75,27.75,-16.75,16.75,46.5,9
-100.5,37.0,-16.25,-13.25,33.75,-36.0,15.25,39.75,9
-100.75,-0.75,-20.5,-13.5,32.0,-9.5,3.0,41.0,9
-45.5,3.5,-22.75,-25.25,29.5,8.5,5.25,51.5,9
70.25,1.25,-9.75,-16.5,27.25,24.0,1.75,56.75,9
128.75,-12.75,-23.5,-25.0,33.0,28.5,-3.5,93.25,9
122.0,-5.75,-18.75,-28.5,33.75,21.75,5.0,136.25,9
183.75,-12.75,-12.25,-25.0,35.25,34.75,9.25,134.5,9
344.75,-13.25,-16.0,-27.75,32.75,31.5,14.25,103.5,9
486.5,-13.25,-10.5,-26.25,30.5,27.0,12.75,63.25,9
503.25,-8.0,-17.5,-31.25,38.5,29.25,18.75,26.5,9
435.0,-5.0,-9.75,-17.0,28.0,32.25,23.75,-3.75,9
243.75,-2.5,-13.75,-14.75,30.0,21.75,3.0,-43.75,9
-0.5,24.5,-16.0,-23.0,45.75,16.5,5.75,-67.5,9
-154.25,31.25,-14.25,-17.0,43.0,20.75,5.5,-32.75,9
-156.5,25.0,-7.75,-15.0,27.25,24.0,9.75,28.5,9
-133.75,-3.75,-9.75,-17.0,21.75,28.0,12.0,78.0,9
-119.0,-10.25,-17.75,-19.0,34.0,28.0,17.5,71.5,9
-89.5,-2.0,-11.5,-26.5,36.5,16.5,25.0,80.25,9
-62.25,6.75,-11.0,-28.0,36.5,13.5,7.75,92.0,9
-79.75,20.25,-4.75,-17.75,38.25,26.75,19.5,85.0,9
-142.75,8.75,-5.75,-19.25,34.0,28.25,28.75,101.75,9
-192.75,18.75,0.0,-21.25,32.5,26.25,19.75,88.25,9
-286.75,11.0,7.25,-8.75,27.75,19.25,11.5,97.0,9
-343.25,2.5,7.0,-11.75,20.5,17.5,15.0,93.25,9
-324.75,5.5,4.0,-16.0,21.25,10.25,22.0,85.25,9
-271.5,-17.5,1.75,-12.5,20.0,7.0,17.5,95.25,9
-171.75,-11.25,7.5,-21.0,-8.25,13.0,32.25,88.0,9
-44.75,-24.75,12.0,-21.5,-12.25,14.25,39.5,82.25,9
64.0,-44.5,10.5,-3.75,1.0,20.25,31.0,76.25,9
104.5,-15.0,-9.75,-1.75,3.0,9.5,28.25,70.5,9
106.75,27.0,-8.75,-14.5,5.25,13.0,27.75,53.0,9
113.25,26.25,-1.0,-8.0,2.0,22.5,33.75,43.5,9
98.75,-10.5,-11.75,-21.25,-2.75,8.75,18.5,39.5,9
51.0,-19.75,-7.75,-30.5,0.75,5.5,14.0,24.0,9
29.75,-53.75,-14.5,-9.5,15.75,-5.75,22.5,28.75,9
54.75,-71.5,-13.75,-11.5,16.0,-6.75,25.5,11.0,9
63.0,-44.5,-12.25,-16.75,19.0,-9.75,18.5,-5.75,9
62.0,-16.25,-23.0,-17.75,27.5,-28.75,16.75,11.25,9
56.0,-2.0,-18.25,-17.25,34.5,-20.25,22.5,-1.5,9
3.75,-5.0,-19.75,-24.5,31.25,-7.75,21.75,-10.75,9
-83.75,10.5,-17.25,-19.25,19.25,-4.75,30.75,-8.5,9
-142.5,4.5,-2.0,-15.0,38.0,4.25,34.75,-13.5,9
-165.5,-7.0,-7.75,-12.0,28.0,3.25,37.0,-15.5,9
-154.25,-12.75,-9.25,-14.75,10.25,3.75,33.5,-18.5,9
-25.75,-24.0,-4.0,-25.25,13.75,25.0,26.25,-25.75,9
175.25,-10.0,-7.75,-26.0,12.75,49.5,32.25,-26.5,9
246.75,7.5,-11.75,-25.75,37.75,40.75,34.0,-11.25,9
119.0,32.75,-6.75,-20.0,34.75,21.5,34.0,-10.0,9
-55.0,48.25,-12.25,-19.5,38.25,20.25,30.25,7.0,9
-208.25,60.5,-14.5,-24.25,41.5,19.5,33.25,-5.25,9
-271.75,67.25,3.25,-2.5,26.5,-1.0,35.5,0.5,9
-243.25,58.0,-7.75,0.25,35.5,19.0,22.25,18.5,9
-173.5,42.5,-8.25,-19.25,37.5,36.5,24.75,-5.5,9
-56.5,-0.75,-1.5,-17.5,41.75,9.75,19.75,-11.0,9
100.75,-21.5,-8.0,-10.5,41.75,13.5,20.25,-1.25,9
173.0,-3.75,-12.75,-14.0,48.5,28.0,31.25,10.0,9
220.25,-6.5,-3.5,-9.5,52.75,49.75,23.0,11.25,9
244.75,-3.0,5.5,2.5,44.5,51.75,23.0,2.5,9
137.75,-14.25,-10.25,-2.75,45.0,50.5,28.0,5.0,9
10.0,-20.25,-3.5,0.5,64.75,67.75,37.25,-1.0,9
-116.25,1.25,-0.75,4.75,57.25,43.5,27.25,-10.0,9
-127.5,-1.5,-8.0,-6.0,43.25,27.25,12.5,-20.0,9
-78.25,-2.75,-10.75,-2.75,46.0,33.75,28.0,-35.5,9
-14.0,17.5,-9.25,-2.25,35.0,38.0,20.75,-39.75,9
32.75,48.0,-9.0,-8.25,37.75,14.75,22.0,-24.75,9
25.0,35.75,-10.0,-19.75,31.5,15.25,33.5,-15.25,9
39.5,2.5,-10.75,-28.25,36.0,17.25,17.75,-8.5,9
75.5,-0.75,-11.0,-21.75,39.75,9.5,18.25,-9.5,9
14.0,-3.5,-14.5,-28.0,27.25,24.0,19.0,-19.25,9
-105.75,-20.0,-19.0,-27.0,21.5,18.75,12.75,-18.0,9
-160.75,-17.0,-15.75,-30.0,17.25,24.5,19.75,-14.75,9
-208.0,-0.75,-9.75,-32.0,23.25,18.0,27.0,-15.25,9
-152.0,2.0,-6.0,-33.75,35.25,12.25,17.75,-2.75,9
-78.25,-0.75,-22.0,-29.0,37.0,19.5,22.75,8.25,9
-0.5,3.75,-22.25,-24.25,55.75,9.5,20.25,7.0,9
78.5,8.25,-20.0,-23.75,54.75,21.0,16.0,13.25,9
90.5,12.75,-19.0,-20.5,41.5,29.5,24.5,-0.75,9
46.25,12.0,-11.0,-9.5,30.5,42.75,36.5,13.5,9
-14.75,23.25,-10.25,-19.0,4.5,33.75,39.25,17.0,9
-36.25,-5.0,-18.75,-21.75,0.25,20.75,36.5,26.0,9
-41.0,-21.0,-11.5,-7.0,15.0,34.25,39.25,41.25,9
-6.75,-0.75,-0.5,-23.0,24.5,45.75,32.25,20.5,9
19.0,-21.25,-7.25,-27.25,38.5,45.75,25.0,36.0,9
-23.75,-20.25,-7.75,-19.75,29.75,56.0,21.5,35.5,9
-138.0,-28.0,-9.5,-18.0,6.25,46.25,34.75,39.5,9
-244.5,-17.0,-4.5,-15.0,-8.5,43.25,39.25,45.25,9
-249.0,10.0,-9.0,-20.75,-12.0,53.75,9.0,43.0,9
-183.0,1.75,-3.75,-24.25,-18.0,38.75,5.25,52.0,9
-114.5,-0.25,-11.75,-10.75,-9.25,51.75,14.25,44.75,9
-69.25,-15.25,-10.0,-12.75,-2.0,32.5,6.25,50.5,9
-36.0,-16.75,-4.25,-16.0,-3.75,-0.25,21.5,55.75,9
32.25,0.25,-9.0,-2.75,24.5,-16.0,41.75,66.5,9
129.5,0.75,-1.25,-4.25,28.5,-25.5,35.75,57.5,9
199.0,-10.5,-22.25,-7.5,22.5,17.75,34.0,43.25,9
183.25,-21.0,-6.0,-10.75,33.0,59.0,35.75,53.0,9
110.25,-23.75,-10.5,-17.0,32.25,54.5,35.75,52.0,9
89.25,-13.0,-21.5,-25.5,38.0,53.5,29.5,51.0,9
84.0,-6.25,-15.0,-18.5,42.0,53.0,18.75,40.0,9
106.0,4.5,-26.5,-12.75,34.5,52.75,-1.75,30.25,9
134.0,29.5,-22.0,-15.0,29.5,58.0,-49.0,32.0,9
136.0,22.0,-18.5,-8.0,27.25,32.75,-33.75,21.0,9
140.5,18.0,-12.75,-21.25,23.75,32.0,6.5,16.5,9
97.5,20.25,-5.5,-20.0,29.0,14.75,17.75,7.0,9
57.5,18.25,-5.25,-16.75,22.0,-2.75,21.0,7.75,9
14.75,25.75,-20.75,-23.25,14.75,19.0,26.0,0.75,9
-30.5,43.5,-21.5,-19.25,2.25,38.0,30.75,-16.75,9
-41.0,39.25,-16.0,-17.0,8.0,39.75,42.0,-18.75,9
-26.0,16.0,-26.5,-22.5,17.5,42.25,36.5,-26.75,9
-22.25,-2.5,-13.0,-31.75,15.25,31.75,5.25,-26.25,9
-16.25,-47.0,-15.5,-29.0,9.75,17.0,-3.25,-42.5,9
-0.25,-54.75,-19.75,-27.5,13.0,33.0,-30.25,-53.0,9
8.75,-31.0,-8.25,-26.75,9.25,26.25,-10.5,-53.5,9
6.75,-18.25,-1.25,-32.5,-3.25,20.75,9.5,-48.75,9
2.25,-19.25,1.5,-25.75,16.25,31.75,11.75,-38.0,9
15.0,-24.75,0.25,-29.75,29.0,29.0,40.5,-42.0,9
-17.5,-7.0,1.75,-22.75,28.25,29.0,42.5,-50.25,9
-32.75,-1.0,-7.0,-16.0,22.75,26.5,35.25,-46.75,9
-25.5,4.25,-4.5,-22.75,27.0,18.5,35.75,-46.25,9
-48.5,20.5,0.5,-8.25,34.25,19.5,40.75,-51.5,9
-38.25,33.0,-14.0,-7.25,22.75,14.5,42.0,-46.25,9
-36.75,27.25,-28.75,4.75,19.25,7.5,39.5,-57.5,9
-68.0,13.0,-13.0,2.0,19.0,12.25,18.75,-66.25,9
-109.75,3.0,3.25,-0.5,9.5,16.0,26.75,-62.0,9
-113.75,5.0,3.75,5.25,4.75,27.0,23.0,-57.25,9
-89.0,18.0,-4.25,-0.25,8.0,23.75,0.0,-52.5,9
-70.25,25.75,-6.75,-8.0,5.25,30.25,14.75,-51.5,9
-50.25,35.25,-2.75,-13.5,12.0,30.0,24.5,-50.0,9
-33.5,39.0,-5.5,-7.75,3.5,28.75,37.75,-52.25,9
-64.25,39.75,-1.0,-19.25,3.0,29.0,39.0,-46.5,9
-95.75,34.5,1.5,-15.5,3.5,23.75,48.5,-35.5,9
-61.25,16.25,6.25,-23.25,9.0,18.75,41.25,-44.5,9
-70.75,-6.75,1.25,-23.5,12.25,-0.75,35.25,-52.0,9
-71.25,-22.5,1.25,-17.75,-2.0,2.5,25.0,-33.0,9
-19.25,-7.75,0.25,-20.75,3.0,10.5,36.25,-27.25,9
54.25,-3.5,-10.5,-16.0,-4.5,3.25,46.5,-22.5,9
111.5,-9.0,-1.5,-28.0,-12.25,-2.25,42.25,7.25,9
140.25,-22.0,-3.25,-8.75,-17.25,8.5,42.0,3.5,9
200.75,-25.75,-7.5,-3.5,-36.25,16.75,35.5,0.75,9
228.25,-13.0,-7.5,-10.0,-33.0,16.75,36.5,4.75,9
188.5,-15.0,-21.75,-9.0,-27.25,21.75,2.75,4.0,9
68.25,-8.25,-20.5,-17.75,-32.5,17.5,1.5,8.25,9
-42.25,2.0,-7.25,-12.0,-36.75,25.0,24.0,7.5,9
-24.25,14.75,-1.25,-10.5,-32.25,34.0,10.75,13.0,9
-29.75,16.5,-6.5,-12.5,-41.75,26.75,6.25,14.5,9
-39.0,21.25,-15.5,-19.75,-57.0,29.25,3.75,25.0,9
-21.75,21.25,-7.75,-19.75,-38.25,29.0,0.0,35.25,9
-29.5,8.75,-7.5,-10.25,-21.25,30.25,19.25,33.5,9
-6.75,2.5,-3.25,-1.75,-12.0,32.75,24.5,28.25,9
37.75,4.0,0.25,-8.5,-2.25,37.25,31.0,35.0,9
38.25,-7.25,-3.5,-17.0,0.0,28.5,37.75,30.5,9
40.0,-4.0,-1.0,-12.75,4.0,22.5,26.25,29.75,9
27.75,-28.25,-4.0,-15.5,5.0,35.5,11.25,30.5,9
27.75,-35.0,-0.5,-20.0,18.75,28.75,-13.75,23.75,9
31.5,-9.5,-1.5,-20.5,17.75,14.75,9.0,32.25,9
-31.0,-1.5,5.25,-20.25,11.75,0.75,19.5,35.0,9
-72.5,25.5,10.75,-21.75,27.0,12.5,41.75,37.0,9
-88.25,20.0,0.5,-5.25,23.25,29.5,40.5,38.75,9
-78.0,31.5,1.25,-3.25,6.25,24.25,24.25,39.0,9
-59.25,27.25,10.75,-11.25,7.25,18.5,36.25,30.75,9
-31.25,2.0,8.75,-20.75,2.25,-5.25,20.25,39.5,9
-8.5,-6.5,4.5,-23.25,-8.25,-35.25,10.5,36.75,9
-29.0,-14.25,1.5,-17.0,2.0,-30.0,-6.0,37.0,9
-39.5,-6.25,-12.5,-24.75,13.75,-16.0,9.5,36.0,9
-6.75,-10.75,-9.75,-26.75,8.25,-7.75,5.75,34.5,9
-7.5,4.5,-10.75,-24.5,15.25,1.5,9.75,40.5,9
-42.5,13.5,-9.75,-30.5,20.25,-3.5,12.5,39.0,9
-69.0,31.25,-10.25,-32.0,10.75,1.25,-1.5,42.0,9
-158.75,17.75,-9.0,-25.25,18.25,4.5,9.25,36.25,9
-161.25,-6.75,-6.0,-20.25,25.0,7.0,13.0,39.0,9
-143.5,-4.25,-14.5,-22.25,30.0,17.0,23.0,38.0,9
-204.25,-15.0,-3.75,-22.25,43.5,21.0,22.5,35.75,9
-114.75,-12.0,-9.25,-23.5,58.0,31.5,26.0,35.0,9
-2.0,-15.75,-11.5,-14.75,57.0,37.5,20.5,26.5,9
16.0,-23.75,1.25,-11.0,45.75,49.25,28.25,28.75,9
69.25,-34.25,-8.25,-9.25,46.5,51.75,37.5,28.25,9
116.25,-24.25,-7.0,-7.75,55.25,52.75,38.75,41.25,9
73.25,-26.75,3.0,-16.75,54.25,54.0,38.75,30.5,9
35.25,-17.5,-3.5,-17.5,50.75,51.25,44.5,28.75,9
-18.25,11.0,-6.25,-22.0,53.0,41.75,45.25,40.5,9
-19.25,-8.25,0.5,-18.5,51.5,26.75,44.75,37.5,9
36.5,-7.5,-4.75,-10.0,55.25,31.25,49.25,36.25,9
-26.0,-0.25,3.0,-17.5,48.0,28.5,15.75,31.5,9
-55.25,9.5,1.5,-19.5,57.0,22.0,0.5,27.75,9
-27.25,19.0,-2.5,-21.0,64.0,37.25,12.25,24.0,9
-45.0,8.25,10.0,-17.0,59.75,52.75,12.75,27.25,9
-83.0,-10.75,13.75,-12.0,70.25,37.75,7.0,14.75,9
-52.5,-17.25,4.0,-15.0,69.75,18.0,31.25,13.25,9
22.75,10.5,2.75,1.5,79.75,11.0,41.75,17.75,9
57.5,6.0,6.25,-3.25,69.0,20.5,38.0,16.25,9
23.75,-13.25,-7.75,-2.5,84.5,9.25,43.25,12.0,9
-25.5,-10.5,-7.75,1.5,90.0,8.25,38.25,-7.5,9
-97.75,-11.75,1.25,2.25,64.0,89.25,33.5,0.0,9
-160.75,-23.5,-15.5,3.25,69.5,100.75,31.25,-3.5,9
-162.25,-20.0,-11.0,-8.0,50.25,54.75,38.5,-13.75,9
-131.25,-5.75,-10.0,-10.5,51.5,47.0,21.5,-11.75,9
-77.5,32.0,-24.0,-25.0,55.25,43.0,26.5,-12.25,9
-26.5,66.0,-12.75,-26.0,50.25,41.75,34.0,-13.0,9
-9.75,33.5,-13.0,-31.75,40.5,32.5,27.5,-24.25,9
-8.0,17.25,-11.5,-19.5,26.5,18.75,42.5,-20.25,9
-10.0,22.75,-13.0,-17.25,52.75,19.25,37.75,-26.25,9
-10.0,16.5,-30.25,-10.0,41.25,22.25,34.25,-32.5,9
-26.5,15.25,-22.75,-11.5,23.5,29.5,28.5,-30.25,9
-64.25,7.5,-17.75,-19.75,30.5,26.5,26.5,-27.75,9
-70.5,1.0,-17.5,-14.75,30.75,29.5,13.75,-30.75,9
-44.75,0.25,-20.0,-22.5,39.75,43.75,0.25,-27.0,9
-26.5,-12.75,-12.0,-11.0,29.0,24.5,2.25,-7.25,9
31.75,-16.75,-12.0,-12.0,34.5,13.25,8.0,-16.25,9
127.25,-11.5,-16.0,-12.75,38.75,11.5,13.25,-19.25,9
168.25,-16.5,-7.5,-10.0,22.25,18.5,15.75,-6.0,9
159.25,-10.25,-13.5,-20.0,32.5,19.75,17.25,-4.25,9
126.25,-18.75,-17.25,-33.75,32.5,9.0,9.75,1.5,9
75.25,-4.0,-7.25,-38.75,25.25,13.5,11.75,4.75,9
26.25,4.25,-5.25,-37.0,40.0,5.5,13.75,14.75,9
-24.75,8.5,-12.25,-35.0,24.0,8.75,16.0,12.75,9
-36.5,22.0,-8.25,-41.75,16.75,14.5,24.0,16.5,9
-38.0,8.25,-20.0,-48.25,20.0,10.0,19.0,21.5,9
-66.25,6.5,-18.5,-37.25,9.25,15.0,20.75,37.0,9
0.25,0.0,-4.25,-27.75,21.25,24.0,27.25,56.5,9
70.75,-11.25,-7.25,-18.5,17.25,25.25,36.75,64.75,9
56.0,-10.5,7.75,-21.5,24.25,21.75,42.5,86.0,9
69.0,-1.75,-2.5,-14.75,32.0,1.5,3.75,80.5,9
51.25,-10.25,-4.75,-18.75,43.5,-13.25,1.0,94.5,9
20.25,-15.5,4.75,-22.25,57.0,16.75,13.0,114.5,9
-41.0,-32.25,-6.75,-13.5,45.5,9.75,5.5,106.0,9
-132.25,-35.25,-4.25,-22.0,46.75,10.5,15.25,118.5,9
-173.25,-15.0,-3.25,-24.0,42.5,8.0,13.5,118.5,9
-185.75,-2.0,-16.25,-32.25,46.75,-6.25,19.0,113.75,9
-233.5,15.75,-13.5,-18.75,57.0,-12.75,6.75,115.25,9
-204.25,5.5,-9.75,-19.25,51.75,-53.75,-1.0,109.25,9
-77.25,-0.5,-2.75,-24.0,49.0,-59.25,25.0,111.75,9
-17.25,-1.25,2.5,-18.25,33.75,-49.5,13.5,107.5,9
-8.5,-6.0,-6.0,-21.75,26.0,-17.25,22.0,104.25,9
39.25,-10.75,1.25,-16.25,30.25,14.75,27.25,100.75,9
150.5,-0.5,-7.5,-24.75,42.0,-5.5,19.5,110.75,9
160.75,0.0,-2.25,-18.75,39.25,-6.0,21.0,117.5,9
160.0,5.75,-6.0,-14.5,37.25,4.75,16.0,120.0,9
188.25,19.5,-10.5,-14.0,32.75,13.75,9.25,117.25,9
97.25,12.5,-1.75,-9.75,29.0,16.75,18.5,117.25,9
8.5,18.0,-12.0,-4.5,28.0,3.0,22.5,130.75,9
13.25,15.0,1.0,1.5,35.25,-2.5,5.25,119.0,9
-11.0,-4.75,0.0,-4.25,39.0,7.0,16.25,114.75,9
-96.0,-19.5,-5.5,-6.5,22.25,0.5,16.75,120.0,9
-165.25,0.25,-3.75,-10.5,23.25,-7.0,17.0,101.0,9
-136.0,11.0,-5.5,-6.0,18.5,-11.25,22.25,98.5,9
-67.75,4.75,5.0,-13.5,13.75,-9.0,19.5,97.5,9
8.5,1.75,-4.75,-17.0,11.5,-13.25,21.0,89.25,9
123.75,-14.25,-5.25,-9.75,16.25,-17.75,26.75,91.25,9
67.0,-15.75,-0.25,-0.75,23.0,5.25,33.25,89.5,9
-35.25,-24.75,1.25,0.0,9.5,-4.5,24.75,91.75,9
-93.0,-29.0,-0.5,-13.0,4.0,-6.0,15.75,74.5,9
-151.25,-16.75,-7.0,-11.75,12.25,-2.75,21.0,83.0,9
-157.5,6.0,0.0,-16.5,10.75,-3.0,26.75,87.0,9
-203.0,24.75,-5.25,-26.75,10.75,15.5,20.5,73.5,9
-213.25,21.25,2.5,-28.0,3.0,-0.25,21.75,73.0,9
-261.25,5.0,-2.75,-19.5,-2.0,-8.25,12.75,53.5,9
-286.0,-1.25,-1.5,-33.5,-7.0,-25.75,15.5,46.5,9
-207.75,13.0,9.25,-23.0,-13.75,-42.5,19.5,34.25,9
-188.0,23.0,5.0,-18.5,-16.0,-14.75,8.5,13.5,9
-240.25,20.5,2.75,-30.5,-5.75,-7.5,20.25,38.25,9
-171.25,16.25,4.75,-13.5,4.75,-14.0,22.5,48.0,9
-16.5,26.0,4.0,-23.5,-9.25,-12.5,8.0,35.75,9
60.0,5.5,-2.25,-18.75,-9.5,-13.0,5.75,34.5,9
194.5,-16.75,-2.75,-13.75,-11.25,-4.25,10.25,30.25,9
163.0,-25.25,-5.75,-23.0,-4.75,-4.75,9.5,17.75,9
43.0,-49.0,-13.25,-19.75,-1.25,-13.25,5.75,-6.0,9
78.25,-45.0,-6.0,-15.75,-15.25,4.75,12.25,-0.25,9
143.25,-32.75,-2.75,-7.25,-15.75,10.0,15.75,-26.75,9
208.0,-20.75,-7.5,-3.5,-17.5,9.0,19.75,-36.0,9
175.25,-2.0,-3.25,2.0,-12.75,28.0,16.25,-17.0,9
96.5,23.0,0.0,-12.5,-13.0,13.5,11.5,-18.5,9
52.5,39.5,-0.75,-12.75,-18.75,16.5,24.25,-4.75,9
49.5,36.25,-8.75,-3.25,-12.25,16.0,20.0,-17.0,9
35.25,42.5,-19.0,-12.25,-8.0,4.0,12.25,-4.0,9
17.25,39.0,-32.5,-12.25,-20.5,12.5,24.75,0.75,9
20.75,29.25,-27.5,-7.75,-13.5,5.25,26.0,-17.75,9
-14.0,26.0,-30.5,-9.75,-15.5,24.5,21.5,-24.25,9
-13.0,13.5,-29.25,-2.0,-21.5,32.0,15.25,-27.0,9
41.0,8.5,-20.75,-0.25,-8.0,33.75,8.25,-25.0,9
103.75,12.25,-30.25,-4.5,-3.75,36.0,7.5,-38.5,9
71.5,9.25,-32.75,-13.0,2.75,35.0,14.5,-36.0,9
101.0,15.75,-37.25,-21.25,1.75,52.25,9.75,-39.0,9
186.0,17.25,-43.0,-12.25,1.75,40.75,9.75,-32.0,9
93.0,4.25,-43.0,-15.25,11.0,35.75,18.5,-9.5,9
12.5,-2.0,-31.5,-2.5,21.75,48.75,14.75,13.75,9
-8.75,12.25,-34.5,-3.5,24.75,51.75,16.0,1.25,9
-8.5,15.5,-34.5,-13.75,36.0,43.0,15.75,-25.0,9
-42.0,0.5,-19.75,-1.5,31.5,51.75,23.5,-21.5,9
-65.25,-2.75,-18.5,-4.5,29.5,55.5,30.5,-45.25,9
-16.75,-0.25,-28.25,-3.25,52.75,76.25,24.75,-65.25,9
-24.0,2.25,-44.0,-16.75,53.5,92.0,22.0,-77.25,9
-53.5,19.0,-33.25,-23.0,51.75,66.75,15.0,-70.75,9
-63.25,24.75,-25.25,-6.0,60.5,56.75,28.25,-67.5,9
-58.75,7.25,-26.5,-16.5,55.0,47.75,24.25,-38.75,9
-84.75,20.25,-17.75,-16.75,41.75,48.75,20.25,2.0,9
-33.5,24.75,-12.5,-10.25,44.0,44.0,27.5,9.25,9
14.25,26.5,-35.25,-10.5,47.75,42.0,39.75,22.25,9
5.75,42.0,-43.75,3.25,37.25,39.25,30.75,10.0,9
66.0,41.0,-21.0,-11.75,34.25,37.5,27.25,19.75,9
50.0,34.5,-10.75,-18.75,37.25,50.5,35.0,4.75,9
22.25,21.0,-13.25,-10.25,44.0,52.5,26.5,-8.5,9
46.25,8.25,-26.0,-17.5,47.75,46.5,26.0,-5.0,9
88.25,7.0,-22.5,-12.0,32.0,43.75,18.0,-20.75,9
147.25,-8.25,-29.25,-15.75,27.0,59.0,27.5,-10.75,9
201.75,-21.5,-34.25,-11.25,26.0,55.75,19.75,-20.0,9
270.5,-19.75,-16.25,-13.0,23.75,59.5,29.0,-19.75,9
199.75,-20.0,-20.25,-30.25,17.5,73.75,26.5,-33.25,9
68.75,-6.75,-21.75,-27.0,6.5,73.75,33.75,-29.0,9
-20.5,-16.0,-16.0,-25.75,11.25,55.75,38.0,-27.0,9
-76.25,-19.5,-18.75,-25.75,7.0,46.25,22.5,-33.0,9
-38.75,9.25,-20.0,-29.0,8.0,51.25,33.25,-28.0,9
-18.0,4.25,-21.25,-27.5,1.5,40.25,10.5,-30.0,9
-28.0,-12.0,-16.5,-25.5,-2.0,46.75,11.25,-26.75,9
-1.0,-2.25,-14.75,-20.25,4.5,41.25,9.75,-30.25,9
9.25,-3.5,-32.25,-23.0,-2.5,28.25,-2.75,-24.25,9
-17.25,-20.75,-24.5,-19.75,5.5,25.75,6.5,-15.75,9
25.75,-8.0,-5.5,-10.75,-4.0,35.75,27.75,-20.25,9
63.75,-6.25,1.0,-19.75,5.75,34.25,17.75,-28.0,9
57.75,0.25,-4.0,-17.5,1.0,24.5,6.75,-25.75,9
67.75,8.75,-3.0,-19.5,-12.5,43.25,23.25,-18.75,9
37.75,-4.5,11.5,-25.5,-14.5,38.75,19.5,-12.5,9
-29.0,-9.5,3.0,-17.5,-22.75,31.0,27.0,-11.0,9
-77.5,-1.0,7.25,-18.0,-16.0,27.75,14.75,-16.25,9
-144.0,-20.0,9.0,-15.0,-14.25,38.25,13.25,-19.0,9
-174.25,-49.25,9.75,-18.25,0.0,43.5,30.25,-23.0,9
-204.75,-47.5,11.75,-19.5,-6.25,33.0,32.75,-12.25,9
-248.75,-60.5,2.25,-23.0,-6.5,55.0,19.75,-19.75,9
-214.75,-47.5,16.25,-20.5,-3.5,60.25,14.5,-21.75,9
-128.0,-12.75,3.0,-9.0,-15.5,68.25,19.0,-12.75,9
-63.25,-0.25,-16.5,-33.0,-14.25,67.5,4.5,-14.5,9
-74.5,10.5,-2.75,-34.75,-9.75,45.5,-9.0,-6.25,9
-25.25,38.0,8.25,-34.5,-4.0,42.5,2.75,7.0,9
27.5,54.5,11.25,-31.5,2.25,23.5,17.5,12.75,9
70.0,65.0,8.5,-36.75,0.25,7.25,28.25,5.5,9
90.25,56.75,12.0,-40.75,3.0,-36.5,27.75,6.0,9
23.25,30.25,22.0,-23.0,8.5,-12.25,16.75,1.0,9
-35.75,9.75,19.25,-17.75,13.0,30.0,22.0,4.0,9
-118.5,-15.75,11.5,-13.0,12.0,-5.5,31.0,14.5,9
-95.5,-18.0,12.25,-12.25,21.25,0.5,33.25,2.0,9
-68.0,-37.75,14.5,-11.25,26.5,-11.5,29.25,0.0,9
-101.75,-43.0,1.0,-20.75,22.25,7.5,30.75,-0.5,9
-82.5,-31.25,-6.0,-19.75,29.25,14.0,20.75,27.75,9
-66.0,-33.75,1.25,-19.75,29.0,10.5,27.25,92.0,9
-21.25,-10.0,3.75,-17.0,27.5,43.75,-6.25,103.0,9
45.5,37.75,-6.25,-11.5,23.25,31.25,-16.25,81.75,9
72.5,52.0,-13.5,-25.25,25.5,42.25,12.0,34.75,9
47.25,28.25,-8.0,-20.5,26.0,47.5,12.5,-19.5,9
-25.5,-1.5,-2.0,-13.5,24.25,63.0,23.5,-82.0,9
-147.5,-30.5,8.0,-4.75,29.75,71.75,33.25,-113.5,9
-164.5,-43.0,2.25,-4.0,26.75,58.0,36.0,-127.0,9
-28.0,-22.5,-5.5,-7.75,28.0,35.5,20.25,-171.25,9
65.75,13.0,2.0,-0.5,30.75,22.5,24.0,-78.25,9
75.5,6.0,5.0,-11.25,18.25,24.75,28.25,20.5,9
42.25,-15.0,3.0,-13.75,5.0,-6.25,25.5,23.5,9
25.0,3.0,-8.0,-16.75,9.75,-42.5,35.75,40.75,9
43.5,13.0,-16.25,-26.25,10.5,-42.75,21.25,50.75,9
45.75,6.5,-20.5,-17.25,3.25,-52.25,23.75,63.25,9
47.75,7.25,-20.0,-15.5,4.5,-37.5,26.75,53.0,9
14.75,-7.75,-12.0,-5.75,10.25,-5.75,18.25,42.5,9
-47.5,-40.5,-7.0,-12.0,15.5,6.75,29.25,49.5,9
-102.0,-57.25,-15.5,-20.25,15.25,35.0,28.25,46.0,9
-118.25,-41.0,-13.25,-8.75,29.0,18.75,31.25,41.25,9
-77.0,4.75,5.0,-12.25,25.5,16.75,29.0,37.25,9
-38.25,13.5,0.5,-15.25,20.75,15.5,9.75,51.5,9
2.0,24.75,2.0,-14.75,38.0,6.5,19.75,49.75,9
65.5,56.5,4.5,-26.25,32.25,13.0,17.0,47.5,9
122.5,67.25,-6.75,-24.25,36.5,2.5,24.0,47.25,9
136.5,63.5,-5.0,-27.75,42.0,15.0,27.0,37.25,9
96.5,43.25,-5.0,-14.75,41.5,17.5,30.0,47.25,9
33.0,-16.0,-3.0,-4.0,49.75,28.25,35.25,45.75,9
-41.25,-67.75,-5.75,-13.5,34.75,42.25,33.5,42.25,9
-77.25,-42.0,-2.5,-5.5,45.75,24.0,33.75,39.25,9
-32.0,-6.5,-2.75,-9.25,54.0,23.25,25.25,33.25,9
-1.75,-15.0,-12.75,-13.75,56.25,21.5,32.25,34.25,9
78.25,-10.25,-5.5,-13.25,50.25,26.0,27.0,36.0,9
172.75,-1.0,-13.5,-12.25,48.0,41.25,23.75,56.0,9
70.0,8.25,-17.0,-15.0,56.75,39.75,19.25,78.75,9
-38.5,23.0,-19.0,-12.75,42.75,40.75,18.5,74.5,9
-113.5,30.75,-23.75,-9.5,48.25,38.5,22.25,59.25,9
-154.0,48.0,-17.0,-13.5,48.25,17.5,24.75,50.75,9
-129.5,47.25,-9.0,-1.5,37.0,5.25,33.5,33.25,9
-145.75,16.75,4.0,-6.75,38.0,19.5,13.5,3.5,9
-106.5,-30.5,-3.5,-11.0,45.5,30.75,21.5,-28.5,9
-75.5,-41.25,-0.25,-20.0,46.0,4.25,20.25,-63.25,9
23.75,-18.5,-10.0,-19.0,38.0,7.0,11.75,-53.5,9
116.75,3.25,-5.5,-20.0,36.25,30.75,17.75,10.25,9
79.75,5.0,-5.25,-19.25,31.75,41.75,9.5,7.5,9
54.75,6.0,-2.0,-14.75,25.0,45.75,13.5,-7.5,9
-23.0,11.25,0.0,-3.25,32.0,40.0,1.5,13.5,9
-105.25,27.0,-15.0,-12.75,22.5,49.75,2.75,12.0,9
-107.5,28.75,-3.25,-31.25,15.25,36.0,4.25,7.5,9
-113.25,15.5,-12.0,-35.25,5.25,12.25,1.75,0.75,9
-69.0,-10.0,-12.75,-30.25,5.25,-2.5,6.75,5.75,9
-12.5,-17.25,-7.75,-29.0,16.5,-5.5,-4.0,-7.5,9
33.0,-3.25,-3.0,-30.25,26.75,20.75,10.5,-9.0,9
26.5,18.75,-7.25,-21.75,33.75,26.5,5.5,-10.0,9
-11.0,26.0,-3.75,-26.0,28.5,7.0,-0.75,-31.0,9
4.0,19.25,3.0,-28.25,28.75,-16.25,5.5,-12.25,9
46.75,32.0,-9.75,-22.25,37.25,-27.5,-1.0,-11.75,9
111.75,21.0,-6.0,-19.25,44.0,-3.5,7.0,-16.5,9
143.75,23.0,-6.0,-23.25,34.75,8.25,15.0,-16.75,9
88.0,-2.5,-10.75,-24.75,24.5,-10.5,4.0,-7.25,9
-60.75,-11.25,-4.25,-22.25,24.75,2.25,8.5,10.0,9
-157.0,-5.75,6.5,-16.5,19.0,5.0,15.25,37.0,9
-154.0,-29.5,-3.75,-9.5,22.0,-2.25,25.75,90.75,9
-159.75,-44.75,-1.0,-12.25,23.75,-0.5,27.75,122.5,9
-204.0,-89.5,11.5,-23.5,28.75,7.25,21.75,96.75,9
-234.75,-74.5,10.75,-10.25,28.75,5.25,32.25,42.5,9
-142.5,-23.5,1.25,-10.5,27.0,9.25,25.75,-10.0,9
-85.75,6.5,-4.25,-13.25,20.25,44.5,30.0,-61.25,9
-6.25,26.25,3.25,-14.25,3.5,52.25,33.75,-77.0,9
46.0,6.25,-3.75,-11.75,17.0,45.5,28.75,-111.75,9
-14.25,12.75,6.25,-3.0,45.25,31.5,34.5,-227.75,9
-40.0,22.5,3.25,-3.5,38.75,10.25,34.5,-200.25,9
-76.5,22.0,0.75,4.75,38.0,16.25,30.5,-54.75,9
-86.75,30.75,10.0,-0.25,50.0,42.25,38.0,-26.0,9
-59.75,30.75,-2.5,-12.75,37.25,22.75,37.0,-6.25,9
7.25,24.75,-7.75,-14.75,30.5,11.75,40.0,22.0,9
81.0,21.75,-10.25,-18.0,31.5,25.0,41.0,26.75,9
93.0,5.75,-5.0,-16.0,34.75,15.5,33.0,48.75,9
68.0,-17.75,-13.5,-6.75,30.0,8.0,46.0,43.25,9
18.25,-20.0,-16.5,-15.25,30.25,14.0,42.5,51.0,9
-12.0,-41.25,-15.0,-27.25,33.75,22.5,44.25,63.0,9
-21.75,-36.75,-22.5,-20.0,33.5,15.25,33.5,66.5,9
-19.25,-14.5,-13.75,-18.25,27.0,10.5,27.75,63.5,9
4.25,6.25,-17.25,-10.5,23.5,2.75,36.25,60.75,9
80.0,24.25,-26.25,-16.25,28.5,2.5,35.0,60.75,9
141.25,43.25,-26.25,-28.5,29.5,8.75,36.25,45.75,9
160.25,59.75,-28.5,-17.0,22.5,6.75,31.75,28.0,9
174.25,28.5,-24.5,-25.0,15.5,-5.5,33.75,23.0,9
173.5,28.75,-26.25,-22.0,18.75,-7.75,16.25,30.5,9
205.25,16.0,-27.5,-10.25,24.25,10.75,18.75,44.25,9
241.5,-18.75,-27.0,-16.25,18.5,2.0,37.75,53.0,9
221.0,-38.5,-36.25,-12.75,18.5,3.5,41.0,35.25,9
48.5,-43.25,-31.75,-16.5,15.5,4.5,50.5,30.5,9
-145.25,-23.5,-17.0,-20.25,12.5,-3.25,47.25,19.25,9
-223.75,-14.5,-16.5,-15.0,13.5,1.5,46.25,24.25,9
-274.0,-18.5,-15.75,-20.75,13.0,11.75,43.0,35.25,9
-339.25,-44.25,-10.75,-17.5,27.25,20.75,47.25,21.25,9
-385.75,-63.25,-11.75,-13.0,17.75,14.5,46.75,12.75,9
-301.0,-24.5,-21.0,-7.75,13.0,19.0,33.75,12.25,9
-243.25,6.75,-13.75,-16.5,23.25,25.75,36.0,4.0,9
-207.5,-3.0,-9.75,-23.5,32.0,9.0,36.0,2.0,9
-106.5,16.25,-16.25,-11.0,41.5,17.25,39.0,16.25,9
-19.25,49.5,-14.5,-4.75,40.5,28.5,54.5,18.25,9
148.25,41.75,-8.5,-7.0,43.25,20.0,54.75,14.0,9
254.0,7.5,-1.25,-21.75,31.0,34.5,52.25,8.25,9
273.0,-13.5,-4.75,-20.75,27.75,-2.5,40.0,8.0,9
236.25,-24.25,-4.0,-21.25,25.0,-17.75,20.0,10.25,9
159.25,-25.25,0.25,-19.0,33.0,28.75,15.25,10.25,9
96.0,-10.5,-1.5,-4.0,41.25,41.75,6.75,13.0,9
52.5,7.0,-14.25,-11.75,29.75,39.0,16.5,12.25,9
-18.25,3.75,-18.0,-32.0,23.75,36.0,4.25,16.75,9
-160.0,-37.5,-6.75,-33.0,16.75,20.0,5.25,36.25,9
-205.25,-19.25,-22.0,-26.5,25.75,8.75,8.25,44.0,9
-150.25,16.75,-17.5,-23.0,20.0,5.25,9.0,25.75,9
-81.0,17.25,-4.5,-20.25,22.0,-1.0,13.75,7.0,9
19.0,48.75,-14.0,-20.75,22.0,23.0,8.5,-19.5,9
127.75,41.5,-21.5,-8.25,21.75,26.0,21.25,-37.75,9
180.0,22.75,-30.25,-15.25,30.0,27.5,6.25,-37.0,9
200.75,16.25,-21.25,-25.0,25.5,34.0,3.0,-54.75,9
182.25,3.0,-7.0,-23.5,23.0,31.75,-4.5,-61.0,9
119.5,11.0,-16.5,-17.75,21.25,37.25,-7.0,-19.75,9
51.75,15.5,-19.25,-24.5,19.5,22.25,8.5,7.5,9
35.0,12.0,-16.25,-28.75,22.0,30.0,25.25,1.25,9
89.5,-0.25,-18.0,-12.5,18.0,23.25,39.5,17.5,9
122.0,-1.5,-18.5,-21.75,4.0,22.25,21.25,3.75,9
86.0,-20.75,-10.75,-27.25,5.25,42.25,24.5,0.0,9
11.5,-23.75,-5.0,-17.5,-1.0,32.75,25.75,16.75,9
-38.25,-0.75,-11.75,-31.75,2.75,30.25,6.75,17.5,9
-71.5,-5.75,-3.5,-22.5,16.0,25.25,2.0,16.0,9
-116.75,-5.5,-4.0,-17.5,8.5,23.5,-1.75,17.25,9
-121.0,17.0,-1.75,-28.25,6.25,36.25,18.75,32.0,9
-83.25,37.75,-1.0,-23.25,4.25,28.5,19.5,36.25,9
-42.5,31.75,-19.0,-12.75,4.25,28.75,3.75,33.25,9
-36.0,21.75,-0.75,-6.5,7.5,36.5,7.5,42.0,9
-58.25,13.0,-7.5,-8.5,19.0,50.75,13.5,41.0,9
-105.75,-10.75,-4.5,-2.5,34.75,64.0,23.75,48.5,9
-138.0,-24.0,-0.25,-9.75,41.0,61.0,15.75,49.5,9
-99.75,-25.75,-10.0,-7.75,43.5,67.5,8.0,35.25,9
-106.0,-23.5,-11.25,-10.75,31.75,53.5,6.0,34.0,9
-103.0,-11.75,-13.75,-14.25,23.25,38.0,7.0,28.0,9
-34.0,-13.75,-6.5,-13.25,8.0,18.75,1.5,20.0,9
-7.0,-2.5,-11.75,-8.5,-6.75,-6.0,1.75,8.0,9
21.75,8.25,-7.5,-16.0,0.0,-11.5,7.75,11.25,9
44.5,-9.0,-22.25,-17.25,12.25,0.75,3.5,6.25,9
20.75,0.0,-17.5,-21.0,-6.25,11.75,7.25,-9.0,9
-37.75,2.75,-13.5,-26.25,-9.75,7.75,2.5,-1.5,9
-44.25,-0.5,-21.0,-21.25,-6.75,4.5,10.5,-10.75,9
-78.5,-7.75,-9.5,-27.75,-23.5,-4.75,10.5,-7.0,9
-146.75,-20.75,-18.5,-18.0,-20.25,-1.0,1.0,-4.0,9
-88.5,-14.0,-2.75,-19.75,-24.25,12.5,-3.5,-16.5,9
40.25,-2.25,0.0,-24.5,-32.25,35.5,6.5,-11.25,9
181.75,2.75,-14.5,-23.0,-26.0,42.0,5.5,-19.25,9
277.0,7.0,0.0,-9.0,-19.5,25.25,-7.25,-7.0,9
307.0,16.25,-2.75,-11.25,-20.75,12.25,10.5,3.0,9
286.0,13.5,-4.0,-4.5,-19.0,30.25,27.0,4.0,9
251.25,5.25,4.25,6.75,-8.25,41.75,28.0,7.5,9
201.75,-2.25,-7.75,-5.0,-8.25,27.25,34.0,-6.0,9
183.0,-10.25,-5.25,-2.75,-6.5,25.75,37.25,-3.0,9
180.25,10.5,4.75,-6.0,0.25,24.75,37.5,2.5,9
-9.25,22.5,-4.0,-5.75,2.25,31.25,53.5,6.5,9
-153.5,32.75,1.5,-8.0,-6.25,38.0,38.25,12.75,9
-270.25,12.75,-3.0,-5.75,-7.75,49.5,27.0,5.5,9
-384.75,-3.0,-2.5,-14.25,-7.75,39.75,30.75,0.25,9
-419.5,7.75,-6.5,-18.25,-9.75,36.5,20.25,8.0,9
-446.25,11.5,-0.25,-12.25,-0.25,44.0,20.5,10.75,9
-372.75,16.0,1.25,-16.25,-1.0,48.5,29.0,10.5,9
-249.5,17.25,-1.0,-16.25,2.5,51.25,19.5,18.0,9
-87.75,27.25,2.75,-11.75,1.5,46.75,5.5,24.25,9
54.75,31.25,-1.5,-21.5,5.5,48.5,10.0,23.25,9
169.25,31.5,-7.75,-21.25,7.75,43.5,31.0,16.25,9
169.5,25.25,-14.75,-12.0,-0.75,31.0,37.5,10.25,9
115.0,14.5,-8.75,-16.5,2.0,28.75,41.75,12.0,9
53.25,14.75,-18.75,-29.0,9.5,35.0,56.5,6.5,9
-7.25,6.0,-13.5,-29.0,17.5,34.5,47.75,6.5,9
-27.75,6.25,-6.25,-21.0,14.25,47.75,40.25,17.75,9
-71.5,1.0,-6.0,-13.25,11.75,43.75,46.5,21.5,9
14.75,-4.5,-7.0,-12.5,10.75,28.5,55.75,29.5,9
103.75,11.75,-9.75,-10.5,2.0,19.75,34.75,23.0,9
31.0,-1.25,-1.0,-8.0,12.25,5.25,16.75,21.5,9
-111.75,6.25,-6.0,-19.75,14.75,17.0,-1.5,31.25,9
-87.25,17.5,-6.75,-17.75,8.75,19.0,2.0,26.25,9
74.25,-2.0,-9.0,-16.75,11.75,5.5,19.5,24.25,9
137.25,-13.0,-10.0,-36.5,7.0,13.75,19.75,21.75,9
140.25,-5.25,-7.75,-26.75,4.75,21.25,49.75,21.25,9
91.25,-18.75,-5.75,-18.5,6.75,37.75,37.25,14.5,9
22.5,-35.75,-3.0,-20.25,8.75,48.0,17.5,3.5,9
-53.0,-23.25,-10.25,-12.0,7.25,52.0,7.25,7.5,9
-88.5,-3.0,-7.25,-19.75,9.0,38.5,3.5,13.75,9
-72.5,11.75,-23.75,-17.25,11.25,22.25,38.75,4.75,9
-73.75,22.0,-32.25,-14.5,14.0,30.0,41.25,-2.5,9
-64.75,30.5,-25.0,-17.0,23.25,28.25,-1.5,-4.0,9
-88.5,22.5,-27.75,-5.25,24.0,19.75,-3.0,-1.75,9
-100.5,-1.0,-18.75,2.25,22.0,12.5,26.25,-0.75,9
-102.25,-27.5,-14.25,3.0,34.5,12.5,33.5,-10.75,9
-59.75,-17.75,-12.25,-7.25,39.0,13.0,52.5,-5.5,9
28.5,-0.25,4.25,-16.75,42.5,22.0,53.0,-3.75,9
75.0,-8.25,1.75,-15.5,41.5,25.75,37.5,-6.25,9
109.25,2.5,4.5,-13.75,39.0,21.25,54.75,-4.0,9
48.5,1.75,11.0,-15.0,48.25,27.25,54.0,8.0,9
-66.0,0.0,9.0,-13.5,37.5,25.5,36.5,17.25,9
-144.5,8.0,15.75,-18.25,38.25,13.0,22.25,0.75,9
-246.5,-1.75,11.25,-7.75,50.5,-9.5,9.0,-8.25,9
-289.75,4.0,15.25,-12.25,45.5,-12.25,39.5,6.0,9
-220.5,4.5,5.75,-16.75,40.5,11.5,45.25,-1.25,9
-159.0,3.75,5.5,-9.5,32.25,11.0,43.75,-5.75,9
-80.5,-7.0,26.5,-25.75,42.25,11.25,47.5,-4.5,9
-6.5,-13.5,23.5,-32.75,53.75,16.0,2.0,-4.0,9
79.5,6.25,14.75,-28.75,57.25,13.0,-15.75,-0.25,9
132.5,6.75,4.5,-32.5,65.25,12.5,-5.75,5.75,9
79.25,-1.5,1.25,-28.25,53.5,12.25,26.75,16.25,9
51.0,-14.0,-9.75,-14.0,50.75,20.0,81.0,22.75,9
55.75,6.5,-17.0,-22.75,45.0,15.25,57.75,31.25,9
28.0,12.5,-16.0,-20.75,46.75,16.5,-47.5,10.5,9
-19.0,-26.0,-10.5,-13.25,39.0,24.5,-83.0,3.0,9
-83.0,-40.75,-14.75,-14.5,43.0,26.75,-40.25,9.75,9
-127.25,-44.75,-4.75,-18.0,31.0,29.75,-11.25,6.0,9
-97.5,-23.5,2.5,-31.5,14.75,17.25,-34.75,3.25,9
-69.75,-5.5,0.25,-32.0,23.5,12.75,-68.5,0.0,9
-29.25,-3.75,15.0,-22.5,19.5,16.25,-46.5,18.5,9
16.75,-8.0,0.5,-23.0,44.0,22.0,-29.75,16.5,9
73.75,-9.5,6.5,-7.75,47.75,23.75,-9.0,3.5,9
107.75,1.5,8.75,-2.0,39.5,21.25,14.75,12.75,9
92.0,8.5,0.0,-7.25,41.5,33.75,10.5,2.0,9
96.5,7.0,3.0,-4.0,36.25,26.0,24.75,2.75,9
58.25,1.5,-4.75,-13.75,41.0,20.5,29.5,16.25,9
47.25,5.0,-4.5,-12.75,44.5,21.0,32.0,27.0,9
17.75,-7.0,-8.75,-4.5,53.25,20.5,13.25,40.5,9
-29.25,-12.5,-7.0,-13.0,51.25,29.25,-3.0,40.75,9
-22.5,-0.5,-5.5,-17.75,41.5,20.75,5.75,42.25,9
1.25,-2.75,-11.25,-14.75,46.0,22.25,18.5,60.25,9
-3.75,-5.25,-9.25,-19.25,69.5,29.5,40.25,78.75,9
-63.75,9.0,-4.25,-11.25,54.0,31.25,27.0,45.0,9
-116.0,23.25,-3.25,-11.25,50.75,22.0,35.25,37.25,9
-100.0,21.25,1.75,-15.0,60.25,19.5,53.25,48.75,9
-50.0,32.75,0.5,-2.75,46.25,13.5,31.25,56.0,9
-54.5,14.25,-11.0,-13.5,42.0,22.75,27.5,62.75,9
-91.0,-24.5,-20.75,-14.75,38.0,22.0,28.25,62.25,9
-67.75,-26.0,-16.5,-11.5,38.75,11.5,33.25,72.5,9
-33.5,-38.0,-10.25,-12.25,30.25,21.0,44.0,69.25,9
-97.0,-55.5,-10.5,-8.5,28.75,14.5,23.0,75.0,9
-144.25,-14.25,-13.0,-4.0,30.5,7.5,9.0,58.25,9
-173.5,17.0,-20.5,-5.0,11.0,1.5,21.25,62.0,9
-217.5,16.25,-14.0,-5.75,19.75,5.75,19.0,81.5,9
-183.5,30.75,-8.5,-20.0,24.5,-1.75,32.5,105.5,9
-69.0,33.75,-21.5,-23.5,31.0,-8.75,23.0,129.5,9
121.25,31.5,-21.5,-13.5,37.0,-8.25,34.75,125.0,9
272.25,28.25,-1.0,-15.5,41.5,-2.0,54.5,151.25,9
379.75,8.25,2.25,-13.75,41.75,3.5,56.0,167.0,9
404.5,6.25,-4.25,-25.0,34.5,-5.5,63.75,130.25,9
323.25,3.25,-6.25,-28.75,40.5,7.25,48.5,92.5,9
181.75,-12.5,-13.25,-25.25,39.0,5.0,54.25,79.0,9
47.75,0.25,-9.5,-23.5,37.0,-2.0,30.0,33.25,9
-21.5,13.75,-7.0,-24.5,35.5,7.5,-13.25,43.0,9
-58.25,-11.25,-17.5,-32.75,49.75,9.0,-20.25,49.0,9
-94.0,-2.25,-6.25,-22.75,51.25,6.25,7.5,-35.25,9
-164.25,5.25,2.0,-37.75,42.25,4.75,19.25,17.75,9
-168.5,-20.75,1.75,-37.0,53.5,16.0,30.0,122.25,9
-120.5,-13.0,2.75,-29.5,57.25,7.5,41.25,106.5,9
-67.0,-20.5,-7.0,-40.5,46.25,4.75,32.75,108.5,9
-80.75,-46.75,-0.75,-40.0,56.25,-2.25,25.0,125.5,9
-88.5,-68.25,0.5,-46.25,66.75,0.5,18.5,125.5,9
-28.5,-59.25,9.0,-51.25,65.75,18.0,46.75,140.0,9
7.25,-45.0,23.5,-48.25,77.0,6.5,53.75,142.75,9
44.75,-44.5,14.0,-37.5,74.0,5.5,44.75,131.75,9
31.5,-31.5,12.75,-44.5,54.0,10.5,28.5,117.75,9
-32.0,-27.75,22.75,-45.25,47.75,2.0,-6.0,118.25,9
-116.25,-36.0,33.25,-48.75,37.25,2.0,-17.25,118.25,9
-157.75,-28.25,24.25,-51.5,33.5,10.0,14.25,105.0,9
-182.75,-13.25,16.0,-48.75,22.0,6.75,51.0,84.25,9
-204.25,7.75,16.25,-35.5,3.75,8.5,56.25,74.25,9
-220.75,8.25,15.75,-30.5,16.25,5.5,60.25,78.25,9
-226.5,4.5,5.5,-35.5,-5.0,6.75,48.0,58.5,9
-210.0,2.25,4.5,-23.0,-6.5,-5.75,17.25,35.75,9
-184.5,-21.75,-4.75,-18.0,-5.25,-11.75,-50.75,27.75,9
-37.75,-4.75,-13.25,-4.5,-17.5,-27.5,-87.75,33.0,9
61.75,-2.5,-9.75,2.5,-12.75,-39.5,-29.25,31.25,9
160.0,-2.75,-29.0,-2.25,-19.0,-2.75,11.25,31.0,9
281.25,0.0,-23.75,2.5,-20.5,-2.5,22.5,17.5,9
298.25,16.75,-19.5,5.5,-24.75,2.0,49.75,7.75,9
416.75,42.75,-23.75,7.25,-20.25,12.0,53.5,-4.5,9
524.25,31.25,-35.25,15.5,-22.75,21.75,58.5,-15.0,9
421.25,38.25,-32.0,13.75,-27.0,29.25,35.25,-11.5,9
204.5,45.75,-42.25,14.5,-26.5,27.25,5.75,-18.25,9
6.25,44.75,-57.75,17.5,-24.75,11.0,29.5,-19.25,9
-101.5,61.5,-49.5,10.5,-26.0,-1.25,50.5,-24.25,9
-137.0,49.5,-53.0,11.5,-15.5,4.0,50.0,-24.0,9
-201.5,48.0,-44.25,19.5,-5.75,9.25,28.5,-36.5,9
-301.0,48.0,-53.5,13.75,-11.5,26.75,13.75,-50.5,9
-334.75,43.75,-41.5,14.5,-5.25,34.25,29.75,-46.25,9
-316.0,54.0,-40.75,14.0,-13.75,36.0,11.75,-58.75,9
-245.0,29.25,-43.5,0.0,-18.5,30.75,-7.75,-58.75,9
-136.5,25.0,-43.5,-4.25,-12.25,18.25,18.25,-46.5,9
-33.25,24.25,-49.75,-8.25,-16.5,18.0,43.5,-54.25,9
48.0,24.75,-32.75,-2.5,-3.75,7.0,34.75,-50.75,9
174.75,23.0,-34.0,1.75,5.75,-14.75,23.75,-39.5,9
278.75,12.25,-24.25,12.5,-2.0,17.75,29.25,-43.5,9
307.25,26.0,-30.0,-0.5,6.0,44.5,36.5,-63.5,9
226.5,22.0,-18.25,-9.5,7.25,40.5,35.0,-77.25,9
24.5,8.75,-3.0,-0.5,2.0,52.0,39.25,-69.25,9
-72.25,17.25,-17.5,-17.75,5.75,34.25,39.25,-60.75,9
-134.75,2.75,-17.5,-17.0,10.25,19.5,24.0,-58.5,9
-149.25,-8.75,-14.25,-7.5,15.75,31.5,16.0,-53.0,9
-37.0,-9.75,-16.5,-6.5,15.5,26.0,20.0,-50.75,9
83.75,-10.5,-16.5,-18.5,22.25,19.5,29.0,-46.75,9
76.5,1.5,-9.25,-23.0,44.75,19.25,34.25,-44.0,9
9.75,-4.25,-3.0,-20.5,51.0,25.75,18.75,-44.0,9
51.0,-9.5,-8.5,-24.75,51.5,18.25,24.75,-39.0,9
93.25,-5.25,-6.25,-19.0,43.75,29.75,47.75,-51.75,9
115.75,12.5,2.25,-21.0,46.75,22.5,34.75,-57.25,9
52.0,15.0,-8.5,-18.75,30.75,20.75,25.0,-57.25,9
-5.0,9.0,-16.5,-7.0,12.25,33.5,5.5,-59.75,9
-11.5,6.5,-9.0,-14.0,20.25,-4.0,-13.25,-49.5,9
-18.25,-7.25,-10.75,-13.5,13.5,34.25,-12.5,-50.75,9
-9.75,-30.0,1.0,-7.5,8.75,58.25,5.0,-41.75,9
-75.0,-43.5,-1.75,-8.0,0.25,40.25,21.0,-37.75,9
-95.5,-34.75,-5.75,-10.5,5.75,36.5,8.0,-45.5,9
-89.25,-11.5,-2.75,-26.0,6.25,27.5,1.0,-42.0,9
-107.0,13.0,0.5,-18.0,-4.25,17.0,-23.25,-48.5,9
-156.5,-10.25,-2.0,-19.25,-1.75,-12.25,-7.0,-52.25,9
-220.5,-30.0,-4.0,-22.0,2.0,17.5,29.0,-56.5,9
-242.5,-21.75,-2.0,-30.75,-1.5,60.5,14.5,-46.75,9
-186.0,-15.25,-0.75,-30.0,-1.75,51.5,11.0,-39.25,9
-106.75,-28.0,12.0,-19.25,0.5,77.0,23.25,-40.75,9
-13.0,-38.75,9.75,-40.75,5.5,82.75,32.75,-28.0,9
194.5,-29.0,19.75,-40.25,12.75,73.25,41.25,-14.25,9
369.25,-16.25,35.25,-46.75,19.25,86.75,25.25,-7.75,9
382.75,-5.75,48.75,-53.0,23.75,77.5,0.25,-31.25,9
295.75,-25.25,45.25,-44.25,27.0,86.25,-31.0,-31.75,9
225.5,-10.25,33.5,-43.0,24.75,75.0,-21.75,-8.25,9
220.5,17.25,40.0,-50.25,35.25,67.75,1.75,-23.5,9
143.25,-1.5,20.5,-45.0,37.25,52.75,17.0,-11.5,9
63.5,13.25,10.25,-41.5,26.25,36.5,39.5,29.0,9
-43.0,29.5,10.5,-26.75,29.5,41.25,30.0,47.5,9
-147.5,23.75,5.5,-15.75,30.0,20.75,33.75,57.75,9
-184.0,19.5,-7.75,-23.25,39.25,24.25,32.75,92.75,9
-193.75,1.25,-7.5,-24.5,47.0,43.0,23.5,105.25,9
-109.75,-13.75,-3.0,-28.5,38.75,49.25,15.5,34.75,9
-62.25,-20.5,-7.25,-26.0,37.25,54.5,1.0,-18.75,9
-44.5,-14.5,-1.75,-33.25,43.75,55.25,17.5,-66.5,9
-106.0,15.25,2.5,-26.75,30.5,61.5,31.75,-134.5,9
-245.0,5.5,-8.25,-13.25,30.25,66.5,34.0,-120.0,9
-235.75,-17.25,-13.75,-10.0,30.5,61.0,52.0,-115.5,9
-164.0,-6.0,-6.75,-15.25,20.0,62.75,50.25,-153.0,9
-123.0,2.25,-11.25,-18.25,18.5,49.25,56.5,-60.0,9
-127.0,8.75,-16.0,-16.0,8.0,52.5,35.0,18.0,9
-146.0,2.0,-18.0,-18.0,0.0,60.25,-36.75,9.75,9
-129.75,-6.0,-23.5,-6.75,3.25,55.25,-14.0,36.75,9
-90.0,-16.0,-24.75,-2.75,3.75,48.5,35.25,39.75,9
-67.0,-14.5,-20.25,-4.0,-0.25,28.5,29.25,29.0,9
-42.25,-11.25,-34.75,-11.0,-8.5,31.5,14.5,32.5,9
-51.75,-10.75,-39.75,-2.75,5.0,33.0,-69.5,44.25,9
-115.75,-1.25,-29.75,6.25,9.5,29.75,-56.25,42.75,9
-125.0,13.5,-31.75,-8.0,-10.25,37.5,9.75,54.0,9
-97.25,38.75,-36.0,4.5,-10.25,37.0,12.5,60.5,9
-114.25,37.25,-31.25,9.0,1.25,33.25,24.25,36.75,9
-132.75,43.75,-35.75,1.5,3.75,48.25,-9.0,60.5,9
-136.75,47.5,-28.5,1.25,-8.0,41.75,-14.25,37.75,9
-149.25,35.25,-23.75,9.75,-4.75,38.5,23.0,9.0,9
-191.25,34.0,-29.25,9.75,4.75,44.5,44.25,8.75,9
-220.0,44.75,-18.25,1.0,8.0,31.0,44.25,-19.5,9
-156.75,40.0,-23.0,-1.5,17.0,37.25,33.75,-49.0,9
8.75,6.75,-32.0,1.25,19.5,44.75,23.75,-70.75,9
233.5,-22.5,-25.5,3.5,19.75,45.75,14.5,5.75,9
417.75,-80.75,-30.0,-9.0,20.5,47.5,30.5,48.25,9
540.75,-77.0,-23.5,-1.75,11.25,21.25,27.75,58.0,9
536.5,-48.25,-22.75,-1.75,0.0,6.75,7.5,116.25,9
454.25,-34.0,-25.0,-8.25,8.5,16.0,18.0,101.5,9
423.0,15.0,-16.25,-6.75,-3.5,25.0,25.75,72.0,9
383.25,25.0,-19.5,-12.25,1.75,39.75,14.25,45.0,9
301.25,29.0,-18.0,-22.25,11.5,32.75,7.75,17.0,9
192.0,39.75,-23.75,-33.5,-2.75,12.75,12.75,-1.5,9
82.75,29.75,-34.25,-45.75,-1.75,18.75,33.75,-52.5,9
31.25,-8.25,-35.5,-36.5,-9.25,27.75,32.75,-103.0,9
36.75,-22.25,-31.75,-41.75,9.5,20.5,16.5,-95.75,9
15.5,-2.25,-27.0,-49.75,4.0,12.75,-9.25,7.75,9
-11.0,21.75,-31.5,-33.0,4.75,24.25,-5.75,61.75,9
-63.5,22.25,-29.5,-39.75,11.75,31.5,31.25,54.5,9
-133.5,-8.75,-21.5,-24.75,6.0,18.25,46.25,100.25,9
-155.5,1.0,-13.5,-10.0,19.75,14.5,44.0,69.5,9
-142.75,7.0,-7.25,-8.75,19.5,12.75,27.75,51.25,9
-100.0,4.0,-2.25,-10.75,27.25,5.5,26.0,58.0,9
-70.25,6.75,-1.25,-12.5,24.5,-10.75,30.75,41.75,9
-42.5,6.0,-3.0,-3.0,30.0,-19.5,23.0,69.5,9
-10.75,6.5,-5.5,2.25,39.0,-2.25,15.75,69.75,9
1.25,0.75,-8.0,-0.25,23.75,5.5,20.0,61.5,9
-22.25,7.75,2.25,-4.5,23.5,6.25,18.25,52.5,9
-68.5,4.75,-2.25,-13.0,26.5,19.0,24.5,58.0,9
-117.5,-4.75,8.75,-21.5,19.25,14.5,48.0,68.0,9
-128.25,-5.75,11.25,-13.5,29.0,11.25,39.25,73.75,9
-109.5,9.25,1.75,-18.75,36.0,13.0,41.75,72.0,9
-90.5,24.25,22.75,-8.0,41.5,6.0,58.75,68.75,9
-81.0,28.75,27.75,-1.25,37.25,-1.5,20.75,65.0,9
-74.75,29.5,19.75,-10.0,32.0,2.0,1.75,64.0,9
-34.75,20.25,16.25,-11.0,37.75,2.5,28.5,74.75,9
-36.75,24.25,9.0,-9.5,37.0,11.0,31.25,66.0,9
-50.0,27.25,5.75,-20.0,33.75,11.75,38.75,75.25,9
-66.75,17.25,-2.25,-24.25,36.25,4.25,44.0,66.0,9
-92.75,15.25,7.0,-11.25,32.5,-2.5,25.5,63.25,9
-77.75,19.5,-6.75,-16.0,24.0,-2.0,19.25,63.5,9
-70.75,31.25,-11.25,-11.25,34.0,-6.5,13.25,63.75,9
-54.25,23.25,-4.5,-21.25,34.75,-9.5,19.75,75.25,9
-53.25,8.5,-12.25,-24.75,33.25,2.25,12.75,55.0,9
-54.5,10.0,-12.25,-11.5,34.5,3.75,15.25,62.0,9
-102.0,0.0,-20.0,-10.5,30.0,18.25,36.5,64.25,9
-194.0,-14.0,-15.75,-10.75,53.0,17.25,49.0,63.5,9
-288.75,-36.75,-15.25,-18.0,52.5,8.75,57.75,63.5,9
-374.0,-18.75,-18.0,-22.0,43.0,-11.5,31.25,51.75,9
-319.5,-9.0,-21.75,-15.0,39.0,-38.25,3.75,81.25,9
-207.75,-28.5,-14.75,-29.5,37.75,-58.75,10.25,116.5,9
-16.25,-29.5,-8.25,-31.5,40.5,-20.5,10.25,111.0,9
209.75,-35.25,-12.5,-26.75,34.25,23.75,13.0,102.25,9
341.0,-38.5,-9.75,-34.5,38.0,8.25,18.5,119.5,9
486.0,-36.25,-11.75,-24.0,41.75,14.0,17.25,107.5,9
508.5,-29.75,3.75,-23.25,33.5,22.25,13.25,72.0,9
436.75,-31.0,3.25,-29.25,28.5,21.75,24.5,46.5,9
321.25,-29.0,3.75,-18.25,47.0,24.5,54.75,10.75,9
150.25,-15.0,8.5,-17.5,43.5,14.25,62.25,21.25,9
20.5,15.0,3.0,-20.75,46.75,-2.75,59.25,64.75,9
-77.25,21.5,7.5,-18.0,44.0,-15.25,42.75,50.75,9
-99.0,17.0,3.25,-22.0,47.0,9.0,69.75,58.25,9
-111.5,20.75,13.25,-29.5,62.25,35.25,113.5,94.5,9
-125.5,6.0,21.25,-19.0,58.25,41.25,50.75,102.25,9
-91.0,8.75,10.0,-15.25,81.0,44.25,-82.0,106.5,9
-63.5,0.25,18.25,-18.75,69.5,25.5,-95.0,95.0,9
-82.0,-0.25,15.5,-21.75,69.75,19.75,-27.0,85.0,9
-113.5,-0.5,22.25,-31.75,70.5,20.75,-18.5,66.75,9
-122.0,-11.0,23.0,-34.5,70.5,-3.5,40.25,51.75,9
-144.75,-24.5,14.0,-27.75,69.5,-16.5,61.0,77.75,9
-139.75,-33.25,25.0,-33.75,57.0,-16.5,2.75,55.25,9
-115.5,-25.25,16.5,-37.75,48.75,-25.0,-33.5,52.25,9
-94.0,-14.25,3.0,-27.25,44.0,-24.25,-4.5,59.75,9
-78.5,-9.75,2.75,-28.75,38.75,1.75,-5.5,46.0,9
-92.75,-10.75,3.0,-28.25,40.75,18.0,-12.5,46.0,9
-117.25,-2.0,10.5,-30.5,44.25,18.5,37.25,30.25,9
-132.5,-18.25,11.0,-26.75,39.0,25.25,43.0,31.75,9
-98.0,-27.75,2.75,-22.25,34.0,24.25,35.25,13.75,9
-105.5,-17.5,-2.0,-17.5,29.75,17.5,45.75,3.25,9
-111.0,-4.0,8.5,-9.5,24.25,17.75,36.0,-8.75,9
-81.25,15.5,9.0,-14.25,11.25,20.5,36.5,-16.5,9
-99.25,16.5,-15.5,-17.75,22.0,21.75,39.25,-2.25,9
-145.0,18.25,-5.0,-19.75,18.5,26.25,53.5,-15.75,9
-173.5,6.75,-1.25,-16.5,13.75,30.0,64.25,-17.75,9
-137.5,2.25,-10.75,-25.5,36.75,33.5,44.75,-17.5,9
-66.5,16.25,-7.5,-23.0,31.5,27.25,44.5,-26.75,9
10.25,14.5,-8.0,-16.25,26.25,31.25,35.0,-30.5,9
88.25,-2.5,-7.5,-23.5,30.25,38.25,28.75,-36.0,9
125.75,-6.5,-11.0,-9.0,34.0,50.0,26.5,-42.5,9
145.0,-13.75,-16.25,-17.5,22.75,40.25,29.0,-62.5,9
178.25,7.25,-20.25,-30.5,12.75,28.5,44.5,-65.75,9
179.5,44.25,-22.0,-12.75,9.25,29.0,23.0,-59.75,9
209.25,27.5,-28.5,-4.25,3.25,18.0,19.25,-27.25,9
162.0,-3.25,-20.75,-6.5,11.75,43.0,26.5,-1.5,9
-10.0,-12.75,-20.0,-4.75,23.25,50.0,30.0,-31.75,9
-95.25,7.0,-19.75,4.0,12.75,40.5,30.0,-23.75,9
-98.25,26.0,-14.25,6.5,-1.25,36.25,14.75,-2.25,9
-86.25,19.25,-9.75,-2.75,4.25,5.75,10.75,-22.25,9
-75.25,18.0,-12.5,2.75,0.25,-40.5,13.5,-30.75,9
-48.0,4.25,-26.75,11.0,-5.25,-49.25,27.75,-82.25,9
-15.0,-24.75,-30.0,-2.0,-11.0,-4.75,49.0,-196.75,9
24.0,-16.25,-22.5,-4.25,-5.5,14.0,54.0,-180.25,9
122.25,21.5,-29.0,-11.75,-16.5,23.0,59.5,-131.0,9
186.75,22.25,-27.75,-9.25,-27.0,19.0,71.25,-208.5,9
195.25,25.5,-28.5,-2.5,-12.5,38.75,50.25,-285.0,9
163.5,44.75,-33.25,-7.0,-14.5,68.0,0.75,-252.0,9
76.25,35.5,-29.25,-13.5,-10.25,38.0,-44.0,-172.5,9
19.5,10.5,-30.0,-6.25,2.0,14.0,-44.75,-107.25,9
-32.25,16.75,-23.25,-4.5,-8.5,32.75,11.0,-55.5,9
-59.5,5.75,-15.5,-13.25,2.25,30.75,31.0,-71.5,9
-85.0,-32.25,-22.25,-14.75,15.0,16.0,17.75,-66.5,9
-142.75,-54.75,-29.5,-16.0,3.5,30.75,15.0,-82.0,9
-172.0,-76.0,-29.0,-9.25,-4.5,20.0,5.5,-79.0,9
-112.25,-46.0,-28.75,-9.25,-6.0,30.5,-7.5,-45.5,9
15.75,9.75,-31.0,-18.75,2.5,32.5,-7.75,-70.75,9
119.5,52.0,-39.75,-28.5,10.25,31.75,-1.0,-56.25,9
150.75,52.5,-31.0,-26.0,10.5,33.75,23.0,-57.5,9
137.75,46.25,-24.5,-17.75,7.75,30.25,60.0,-57.75,9
102.5,35.5,-35.25,-18.0,22.0,40.0,66.5,-43.75,9
66.75,15.0,-26.25,-22.25,23.5,28.0,48.0,-43.0,9
50.5,-0.75,-13.0,-16.75,16.75,31.75,5.0,-41.5,9
-25.5,-33.0,-17.5,-12.0,10.75,40.25,-21.5,-40.0,9
-153.5,-51.5,-13.75,-18.5,11.75,26.25,0.25,-16.75,9
-220.0,-44.25,-10.0,-20.5,16.25,28.0,40.75,-12.75,9
-238.75,-20.75,-23.5,-13.5,8.5,40.5,49.75,-11.75,9
-207.25,0.5,-19.25,-14.25,9.75,27.5,25.0,-1.5,9
-123.25,13.75,-6.75,-16.25,12.25,23.0,14.5,8.25,9
-73.5,-6.0,-5.75,-11.0,5.25,18.5,27.75,17.5,9
-27.0,-4.0,0.25,1.25,7.25,23.0,10.75,3.75,9
41.75,13.5,-1.0,-2.5,-0.75,21.5,-20.5,12.25,9
110.0,15.25,-5.0,-10.75,-13.75,24.5,23.0,22.0,9
166.5,45.75,-1.0,-6.75,-1.75,21.5,42.75,20.25,9
189.5,33.25,6.25,-15.75,8.0,3.25,5.5,35.0,9
173.25,32.25,8.25,-6.5,2.0,5.75,14.0,40.25,9
103.25,22.75,-1.5,-6.0,1.5,22.0,27.75,47.5,9
44.0,10.0,-13.5,-14.5,1.75,26.25,9.5,49.5,9
-16.0,-5.5,-11.25,-7.5,-0.5,16.25,5.5,44.25,9
-76.5,-23.0,-14.25,-3.75,-3.5,16.5,18.25,52.5,9
-74.0,-22.5,-22.75,-8.75,0.0,18.5,46.25,42.75,9
-51.75,-32.75,-15.25,-12.75,1.75,16.0,67.0,36.0,9
3.5,-11.5,-16.75,-8.5,3.5,12.75,58.25,42.5,9
22.75,2.75,-14.25,-14.5,5.25,9.5,67.25,27.75,9
-0.25,5.25,-6.75,-19.0,12.5,13.75,15.75,32.5,9
-3.0,-0.25,-11.25,-10.0,10.75,16.5,-31.0,36.0,9
12.0,3.0,0.75,-17.25,-7.75,15.5,39.5,48.25,9
28.0,13.5,3.25,-19.25,-7.25,18.0,45.0,45.5,9
35.5,14.25,-8.0,-10.25,5.0,21.75,19.0,19.75,9
118.75,11.25,-2.25,-22.25,13.25,16.0,44.25,31.0,9
158.75,17.5,2.25,-18.0,10.75,16.25,27.25,32.75,9
49.25,12.75,7.25,-13.25,10.25,21.0,15.75,33.0,9
-62.75,-6.5,3.5,-24.25,20.75,19.25,11.25,35.75,9
-144.25,-25.5,-4.0,-16.25,11.0,19.25,30.25,25.75,9
-242.0,-32.0,4.25,-12.0,22.5,9.5,33.75,37.5,9
-258.5,-9.5,6.75,-7.5,21.25,10.0,-33.5,55.25,9
-173.25,-13.75,13.0,-9.25,17.0,14.75,-51.5,41.0,9
-102.0,-3.25,7.0,-17.75,14.25,11.5,-47.25,29.5,9
-54.5,11.25,-2.25,-20.0,12.25,14.25,-28.0,28.25,9
-2.75,-2.25,-1.0,-23.5,4.75,24.25,-5.5,13.25,9
46.0,11.75,19.0,-26.25,-12.25,17.0,-14.25,9.0,9
93.75,9.0,21.75,-28.25,3.0,35.0,15.75,7.5,9
102.5,19.75,22.25,-33.25,3.5,47.75,40.75,8.75,9
96.0,28.5,31.75,-41.75,7.75,35.5,47.5,0.0,9
41.25,14.25,35.75,-42.25,-3.25,32.75,55.75,16.5,9
-46.25,-6.5,36.25,-43.5,-8.5,25.0,42.0,47.0,9
-106.0,-11.25,32.0,-42.75,5.25,20.5,47.25,55.0,9
-107.25,16.75,22.75,-43.0,17.25,19.5,24.0,67.25,9
-98.75,10.0,16.25,-47.0,13.75,20.25,-9.5,70.0,9
-129.0,-12.75,21.0,-41.75,10.5,18.5,-6.0,72.5,9
-96.25,-22.25,15.0,-40.25,27.5,16.5,9.5,54.0,9
-32.75,-21.25,13.75,-45.0,16.75,8.5,12.25,50.5,9
-28.0,-16.75,9.5,-45.25,25.5,6.25,14.25,65.25,9
-25.75,-25.0,8.0,-38.0,36.0,15.5,52.5,67.0,9
24.25,-30.5,-0.5,-28.5,35.75,12.75,45.25,79.0,9
42.25,-28.5,-17.0,-23.25,27.75,14.5,50.25,74.5,9
-6.25,-23.0,-13.5,-21.0,22.75,22.0,62.0,79.5,9
-51.0,-9.0,-17.0,-25.25,20.5,27.75,52.25,79.0,9
-65.75,6.0,-22.0,-15.5,20.5,27.25,30.0,84.5,9
-89.5,-1.5,-21.5,5.25,40.25,39.0,9.25,95.75,9
-113.5,5.0,-34.5,-12.5,40.5,44.0,2.5,69.25,9
-134.5,1.0,-41.0,-5.5,36.0,26.5,-23.0,37.0,9
-116.25,10.75,-37.25,2.5,36.25,29.5,11.75,28.5,9
-64.5,33.75,-37.75,-7.75,43.75,33.25,19.5,45.5,9
-0.25,23.75,-38.25,-1.0,51.0,31.75,17.5,37.0,9
78.25,15.5,-39.75,-7.25,52.5,35.25,38.25,48.0,9
132.0,11.75,-33.25,3.0,60.0,33.0,36.0,62.5,9
140.5,14.75,-35.5,9.0,56.0,25.0,37.0,46.0,9
88.25,14.5,-28.25,0.0,58.5,26.5,18.0,42.25,9
100.25,27.25,-21.5,11.75,54.0,39.0,-6.25,40.0,9
89.75,6.75,-25.75,8.5,49.5,28.25,-20.75,34.25,9
46.5,-13.5,-17.5,-2.25,54.75,30.0,-6.25,30.5,9
3.25,0.75,-26.25,-8.75,58.75,39.5,18.0,29.75,9
-66.25,8.0,-25.25,-7.75,46.0,34.25,23.5,13.5,9
-58.75,43.75,-0.25,7.0,53.25,35.75,15.0,16.0,9
-19.75,54.25,-12.0,0.75,56.25,32.25,-21.75,28.25,9
12.25,34.5,-15.0,-2.25,34.25,26.75,-36.75,38.75,9
9.0,21.0,-16.0,0.0,33.25,25.25,-8.25,33.0,9
-4.75,16.75,-21.0,-6.0,27.25,18.5,6.5,9.75,9
18.5,20.5,-19.0,-8.5,30.0,17.5,43.0,7.25,9
53.5,7.75,-31.5,-6.5,30.25,22.25,18.5,4.0,9
40.25,10.0,-20.25,-3.25,30.75,27.75,-24.0,13.5,9
-51.25,-3.5,-22.25,-16.25,26.75,28.75,-3.25,-32.25,9
-55.0,6.25,-16.5,-16.5,19.75,21.25,-9.5,-95.5,9
10.0,14.25,-11.75,-9.0,28.25,1.75,-6.75,-87.75,9
30.5,3.25,-27.5,-10.25,20.75,26.5,38.5,-62.75,9
26.0,-9.5,-21.5,-19.0,14.0,38.25,51.5,-87.25,9
-12.5,-27.0,-24.0,-19.75,17.5,33.75,-3.75,-140.25,9
-2.75,-34.75,-13.25,-14.5,16.25,35.5,-36.5,-151.0,9
32.75,-52.75,-6.0,-18.0,14.0,39.75,-29.5,-44.25,9
35.5,-44.25,-12.25,-26.25,7.75,56.5,-24.25,54.0,9
39.25,-26.75,-12.0,-18.25,-3.75,26.75,0.75,25.5,9
64.0,-17.0,-23.25,-9.5,8.25,-7.5,34.75,29.25,9
58.5,9.75,-22.5,-20.5,5.5,-3.25,49.25,9.5,9
55.25,-2.75,-35.75,-20.25,0.0,7.5,54.0,-17.0,9
71.5,8.0,-31.75,-19.25,4.5,-4.0,57.5,-47.0,9
64.5,44.75,-23.0,-18.0,-2.75,-13.25,45.25,-75.5,9
33.25,57.5,-21.75,-9.75,-9.0,-4.0,40.5,-116.75,9
36.5,56.5,-23.0,-12.75,-14.75,-14.75,27.75,-168.5,9
67.0,37.0,-21.0,-19.75,-14.5,-6.75,1.25,-61.0,9
46.75,22.0,-7.25,-20.0,-18.25,35.25,33.0,-0.5,9
9.75,13.25,-13.5,-25.75,-12.5,30.0,47.5,3.0,9
-39.5,4.25,2.75,-19.5,-7.0,24.5,55.5,55.75,9
-137.25,-5.5,-6.75,-19.0,-10.5,32.5,54.75,61.25,9
-283.25,-3.0,-12.25,-21.75,-0.25,19.0,45.5,49.75,9
-282.75,2.25,-11.25,-19.5,-6.0,20.0,46.75,41.0,9
-140.0,17.25,-9.25,-30.25,1.75,22.25,41.0,36.75,9
19.75,43.0,-1.75,-8.5,4.5,32.5,45.25,22.25,9
137.75,23.25,-7.0,-1.5,-1.5,20.75,49.25,17.5,9
125.25,-1.25,-0.25,-7.0,14.0,2.5,69.25,14.25,9
92.5,-22.75,-10.75,-6.0,13.0,21.5,66.25,-26.0,9
69.0,-40.0,-0.25,-19.5,24.0,22.25,42.0,-22.0,9
59.25,-19.75,5.0,-24.25,15.0,37.25,45.0,69.25,9
37.75,-11.0,-13.5,-17.0,14.5,49.25,57.5,43.25,9
15.75,-10.5,-3.0,-12.5,32.75,39.0,54.5,2.75,9
136.0,-6.25,10.0,-8.5,27.75,39.25,60.75,23.5,9
177.0,0.75,11.75,-6.25,22.75,42.75,43.75,14.0,9
116.25,5.0,13.5,-11.75,29.75,38.75,38.25,0.75,9
18.0,-2.0,13.25,-15.25,34.5,39.5,22.5,10.75,9
-139.25,-3.0,3.0,-18.5,34.25,28.0,10.0,58.25,9
-173.0,-20.25,-9.25,-21.5,44.5,37.5,59.25,41.75,9
-195.25,-20.75,-11.75,-21.0,44.25,38.5,58.25,64.25,9
-228.75,-6.0,-9.25,-23.5,52.5,37.0,18.75,64.75,9
-254.5,-8.0,-11.25,-29.0,56.0,35.5,21.75,41.5,9
-256.0,-4.5,-7.0,-32.0,59.5,21.5,56.25,66.25,9
-217.25,-5.5,-1.25,-24.0,52.25,15.75,32.75,54.0,9
-166.75,-21.0,3.5,-31.0,43.5,9.5,-13.25,68.25,9
-75.75,1.5,16.75,-21.75,50.25,25.5,-4.75,74.25,9
-9.0,44.0,9.75,-19.0,49.0,17.0,33.5,81.5,9
8.0,34.5,1.25,-35.75,46.25,13.75,23.5,63.5,9
-3.5,15.75,1.0,-33.75,46.0,24.25,-14.25,49.5,9
-45.5,3.75,-8.5,-28.5,35.75,22.0,-7.25,46.5,9
-91.75,-13.75,-8.0,-35.5,36.0,21.5,2.75,33.0,9
-50.0,2.5,4.5,-34.25,46.0,6.25,5.0,41.25,9
-13.25,12.25,9.75,-16.5,37.75,14.25,20.5,40.25,9
-31.5,-2.0,0.0,-25.5,40.5,14.25,21.25,34.0,9
-34.0,-15.0,-3.75,-21.25,30.0,6.25,29.5,39.0,9
-66.5,-0.25,-0.75,-8.0,18.5,18.5,46.25,52.25,9
-30.5,1.5,-6.0,-0.75,22.25,25.0,36.75,47.75,9
-1.25,-5.75,4.25,8.5,25.25,32.5,38.75,44.75,9
-6.25,12.75,5.75,-6.0,20.75,20.25,35.75,25.5,9
13.0,18.0,2.5,1.5,3.75,14.5,7.75,4.5,9
71.75,38.0,-4.75,-2.5,26.75,13.5,-27.75,7.75,9
116.5,34.75,1.75,-10.25,33.5,2.75,-11.5,0.5,9
88.5,21.5,-2.25,-11.25,19.5,9.25,6.25,10.0,9
74.0,10.25,-9.75,-13.5,24.5,10.75,-16.0,13.5,9
46.25,-1.75,0.0,-8.5,17.75,29.75,-12.5,1.25,9
107.75,12.25,7.75,-7.5,27.0,43.5,-5.5,6.75,9
191.5,19.75,7.75,-20.5,32.0,32.0,40.5,11.75,9
126.25,-0.75,-1.75,-30.25,31.75,18.25,50.0,22.5,9
39.5,-19.25,12.5,-15.0,41.5,21.0,1.75,30.5,9
-34.5,-44.5,13.0,-25.75,39.5,29.75,-47.5,31.5,9
-100.75,-67.25,1.5,-23.75,47.5,34.0,-75.25,30.25,9
-65.25,-56.75,7.25,-24.5,53.25,33.75,-25.5,39.25,9
-57.5,-51.0,9.5,-28.25,53.0,30.0,-12.75,28.0,9
-80.0,-55.75,4.0,-21.5,52.25,41.75,45.5,13.75,9
-84.75,-50.75,0.5,-22.25,45.5,26.5,74.0,20.5,9
-67.5,-38.75,-2.25,-20.5,43.75,1.0,12.75,7.0,9
-20.25,-28.5,-3.75,-31.0,48.75,-2.25,-15.25,11.0,9
-19.75,-27.25,-7.5,-31.5,58.5,9.25,-15.75,5.0,9
-55.75,-33.5,-1.5,-20.25,57.75,27.0,-14.75,20.0,9
-76.25,-17.5,2.25,-15.75,37.5,15.0,-11.0,25.0,9
-100.25,1.75,-4.0,-16.0,33.5,-4.25,26.5,-17.25,9
-71.5,17.75,-10.25,-21.25,33.25,-15.0,31.5,-12.75,9
-13.0,53.5,-8.25,-19.25,43.5,-11.0,29.25,-35.25,9
-26.75,49.0,3.5,-19.5,39.0,3.0,19.0,-35.25,9
-14.25,11.75,6.25,-23.5,40.75,11.0,26.75,-32.0,9
38.0,12.0,2.75,-26.0,54.0,27.0,46.0,-84.75,9
61.25,10.5,-1.0,-29.75,52.25,39.0,5.5,-51.0,9
45.25,14.75,-1.75,-19.25,59.75,54.5,15.5,23.0,9
2.0,16.0,-4.75,-20.0,57.75,51.25,30.5,25.0,9
-35.0,-4.25,-8.25,-22.25,56.0,38.0,6.75,38.25,9
-67.75,-36.5,-6.25,-16.75,50.75,18.25,38.0,47.5,9
-94.75,-59.75,3.75,-22.5,36.0,12.0,33.75,49.75,9
-90.5,-68.5,-4.25,-24.25,36.75,26.5,12.25,72.75,9
-30.75,-41.0,-12.25,-25.75,24.25,28.5,39.5,51.5,9
11.5,0.0,-12.75,-29.5,5.75,20.0,32.25,47.25,9
-13.5,-8.0,-23.0,-20.25,11.5,17.5,47.0,53.75,9
-31.0,3.5,-20.5,-23.25,12.5,21.25,68.5,56.25,9
-40.0,-1.0,-21.0,-24.0,10.0,18.25,63.25,80.75,9
0.25,-17.5,-15.75,-17.0,10.25,14.75,59.25,98.0,9
4.25,-13.5,-27.75,-19.0,-1.75,15.0,37.5,85.5,9
-30.75,-7.25,-14.25,-19.25,-1.25,19.25,19.0,73.0,9
-22.5,7.25,-0.25,-31.0,-6.0,17.75,17.0,71.25,9
-27.0,17.75,-15.25,-30.25,-1.25,15.0,-3.25,94.0,9
-49.5,17.5,-9.0,-23.75,8.0,23.0,-7.0,119.25,9
-114.25,8.75,-11.0,-23.5,9.0,28.5,15.0,35.5,9
-89.5,22.0,-14.75,-28.75,5.75,20.5,25.0,-41.0,9
-23.0,20.0,-14.75,-23.5,-2.75,11.0,30.75,-5.75,9
20.25,29.25,-4.75,-17.0,10.25,17.75,34.25,1.0,9
66.75,23.75,-8.0,-19.25,17.75,8.75,20.75,-77.75,9
66.0,-7.0,-13.0,-23.75,8.75,-1.0,4.5,-138.25,9
-0.5,-10.25,-12.75,-21.0,2.75,-13.0,8.0,-149.25,9
7.0,-1.5,-15.25,-19.0,2.0,-24.25,11.0,-28.0,9
46.25,1.75,-23.0,-13.25,-0.75,-19.25,34.75,73.75,9
17.0,5.25,-22.75,-3.25,0.25,-13.25,49.25,41.75,9
18.0,6.0,-13.5,-6.75,-6.0,9.25,41.75,75.25,9
7.5,5.0,-11.25,-11.0,-6.0,14.5,24.25,62.75,9
-14.75,5.75,-6.5,-11.0,-7.0,8.75,-18.75,64.0,9
-44.25,-6.75,-25.75,-3.5,-14.0,18.25,-26.0,74.0,9
-82.5,3.25,-23.75,-2.0,-16.5,18.25,-21.5,84.0,9
-129.5,11.0,-14.75,12.5,-16.25,28.0,27.75,118.75,9
-190.5,18.75,-7.5,14.75,-13.75,40.0,59.0,70.75,9
-216.0,31.5,-6.25,17.75,-5.75,27.25,35.5,50.25,9
-235.0,21.5,-13.0,4.75,3.5,14.0,37.25,43.25,9
-261.0,42.25,-16.75,-11.5,3.0,8.75,24.25,21.25,9
-154.5,55.5,-18.0,-4.0,0.0,23.75,40.75,13.75,9
19.5,34.75,-11.75,-11.25,1.0,25.75,38.25,32.75,9
141.25,27.75,-22.75,-8.0,-6.25,27.75,31.5,-16.25,9
263.25,-0.75,-9.75,-16.0,-3.0,9.75,43.0,-49.75,9
360.75,-24.5,-14.5,-19.75,4.5,-10.0,44.75,22.25,9
368.25,-17.75,-28.75,-31.25,3.75,6.5,19.5,72.25,9
236.25,-18.25,-12.75,-24.25,2.5,-9.5,5.75,61.25,9
120.25,-8.5,-7.25,-23.0,1.25,3.75,43.0,68.0,9
65.25,13.25,-11.0,-25.5,8.0,17.5,27.25,69.75,9
34.75,28.25,-14.5,-15.0,6.25,2.75,27.75,66.0,9
35.5,25.75,-13.75,-23.5,2.75,20.75,-13.75,73.25,9
9.5,27.0,-2.0,-12.75,7.0,19.25,-45.0,72.25,9
24.5,8.0,-6.75,-15.0,10.75,-3.25,-12.0,91.25,9
5.5,-8.0,-10.75,-17.75,21.0,-14.5,35.75,90.25,9
-24.5,-0.25,-12.75,-22.5,3.75,1.5,49.25,85.5,9
-11.75,-0.25,-14.25,-27.75,3.0,18.25,30.5,81.25,9
-33.0,7.5,-2.75,-26.25,12.5,19.25,42.75,75.5,9
-59.75,2.75,-10.75,-26.25,-0.5,23.75,49.75,78.0,9
-52.75,20.0,-8.5,-26.0,-0.5,12.0,15.0,72.75,9
-56.0,30.5,-15.0,-24.5,0.25,14.0,-38.25,64.75,9
-57.25,6.0,-12.5,-31.25,4.0,15.75,-15.5,58.5,9
-79.5,-16.0,-9.25,-40.5,0.0,8.5,-12.5,62.5,9
-93.5,-42.25,-15.75,-25.75,-8.0,23.75,-32.25,64.5,9
-58.0,-41.5,-6.0,-26.25,-5.5,26.75,-11.75,64.25,9
-84.0,-35.5,-11.25,-33.25,12.25,34.75,12.75,84.25,9
-89.25,-31.5,-0.25,-29.0,10.75,31.75,13.75,62.75,9
-33.25,-21.75,-3.5,-18.0,11.25,16.0,5.0,38.75,9
-12.0,-6.25,0.75,-16.75,9.75,27.5,9.75,52.25,9
36.5,3.0,-1.25,-4.5,7.5,35.5,20.25,45.5,9
86.5,10.5,-11.5,-5.25,21.25,31.0,21.25,33.0,9
57.5,20.5,-3.75,-15.25,6.0,27.75,5.0,9.0,9
20.0,23.5,-5.25,-2.75,13.25,58.5,2.25,-2.25,9
-7.25,1.25,1.0,-16.75,13.5,43.5,23.25,21.0,9
-25.5,-3.25,-9.25,-12.75,27.0,26.25,39.5,-13.0,9
-36.5,-4.75,-5.75,-10.75,21.25,40.25,30.5,-44.5,9
-50.75,-3.75,-17.0,-22.75,21.0,32.0,25.75,-25.5,9
-38.25,6.25,-16.75,-20.0,35.25,41.75,7.25,-12.25,9
-16.75,-2.75,-5.0,-17.75,20.75,30.0,-24.75,-14.25,9
-4.5,-4.75,-4.0,-0.75,31.0,29.25,-18.25,-6.75,9
12.0,0.0,-5.75,-16.0,22.5,30.5,-18.5,0.75,9
55.25,10.5,-14.5,-31.25,25.0,32.0,-9.0,-15.25,9
56.5,6.0,-3.0,-25.0,32.25,32.5,8.5,-10.75,9
40.75,12.5,-0.5,-25.5,21.0,27.25,26.25,-3.5,9
10.75,23.0,-2.5,-25.0,18.75,34.25,24.0,51.5,9
-18.5,17.5,-19.5,-21.0,26.75,27.5,3.25,126.75,9
-77.75,8.0,-13.0,-27.0,42.0,29.25,11.25,117.5,9
-145.75,6.0,-1.0,-30.5,47.0,15.0,18.75,60.75,9
-152.25,-12.75,-5.0,-24.75,42.75,18.75,25.0,3.25,9
-107.25,-7.75,-14.25,-37.25,24.75,16.5,2.25,-65.75,9
-40.0,-8.5,-17.75,-26.25,21.5,15.5,-1.75,-122.5,9
-1.5,-14.0,-13.5,-28.25,15.0,12.0,-8.5,-204.25,9
35.5,-5.5,-14.5,-30.25,16.75,3.75,-3.25,-289.25,9
74.5,-14.5,3.0,-5.25,17.75,20.0,10.0,-203.5,9
118.5,-20.25,-6.75,10.75,13.0,18.25,41.75,-44.0,9
62.75,-15.25,-1.75,0.75,23.5,21.75,96.0,-48.75,9
3.25,1.25,2.5,5.5,27.5,12.0,62.25,-38.25,9
29.0,0.75,-8.5,9.25,24.75,11.0,60.0,0.0,9
-2.5,3.0,-0.75,-1.0,20.25,30.25,50.0,-6.25,9
-35.25,-4.0,-4.25,4.5,33.75,34.5,8.75,18.5,9
-51.0,-3.25,-5.75,8.0,29.0,29.0,9.25,7.5,9
-83.75,0.75,-3.25,10.5,36.0,39.25,38.75,22.25,9
-89.75,-5.0,-3.0,10.5,38.25,34.25,38.5,15.0,9
-81.5,24.5,-6.0,12.75,24.75,21.25,24.75,4.75,9
-58.0,27.5,-1.0,16.25,30.25,26.75,27.0,19.0,9
-29.25,14.5,1.5,5.5,31.5,25.5,27.75,9.75,9
-4.5,2.25,0.5,-5.5,43.75,39.75,57.5,30.5,9
47.5,1.75,-3.0,-6.25,35.5,36.25,43.5,31.75,9
76.0,-9.0,-2.0,-17.25,25.5,33.75,50.5,27.75,9
108.75,-3.5,-13.5,-17.5,27.0,43.25,59.5,31.75,9
140.5,22.75,-8.25,-15.75,40.5,38.75,68.25,59.25,9
123.5,22.5,0.25,-27.75,41.0,21.75,54.25,71.25,9
86.25,26.0,-10.5,-19.75,27.75,9.5,40.5,31.0,9
24.75,14.75,-8.75,-16.25,36.0,9.5,50.5,11.75,9
-5.75,-3.5,-10.75,-2.75,30.75,6.25,36.25,-18.0,9
-32.5,-7.0,-1.0,-9.75,45.5,17.5,43.5,-39.75,9
-78.25,3.25,-3.5,-17.25,41.75,17.5,44.75,-62.25,9
-102.0,-15.0,-14.0,-5.5,26.5,19.25,53.5,-124.75,9
-111.5,-29.5,-1.25,-9.25,21.0,18.75,35.0,-121.25,9
-114.0,-30.75,1.0,-13.5,16.5,11.25,45.25,0.0,9
-112.0,-49.5,-1.75,-20.25,22.0,-0.25,57.5,22.25,9
-105.25,-24.25,-10.75,-27.5,24.5,-2.25,29.0,12.5,9
-85.25,-12.0,-23.25,-35.75,37.75,8.0,16.5,61.75,9
-70.75,-6.0,-15.25,-32.5,35.5,17.75,7.75,38.0,9
-44.75,5.75,-23.25,-31.75,38.75,32.25,6.25,49.75,9
-7.5,12.25,-26.5,-41.25,21.5,45.25,19.25,57.5,9
21.0,30.0,-12.25,-30.0,23.5,70.75,0.0,66.5,9
41.5,15.25,-24.75,-31.0,29.75,51.25,10.5,70.5,9
69.25,-15.0,-27.25,-26.25,26.25,30.25,33.5,43.75,9
115.25,-19.25,-21.75,-24.25,32.5,7.0,31.25,40.0,9
130.75,19.0,-8.25,-24.0,26.5,-44.5,16.0,23.75,9
121.25,7.25,-14.25,-16.75,23.75,-21.5,-7.25,23.5,9
88.75,3.0,-14.5,-14.5,24.25,23.0,35.0,29.75,9
40.5,23.75,2.5,-4.5,23.75,37.25,48.75,-16.5,9
-24.25,8.0,5.0,-4.5,20.25,47.0,33.5,-65.5,9
-59.75,22.0,5.0,1.75,33.5,53.75,36.75,-10.0,9
-54.75,49.0,3.0,2.25,25.25,46.5,28.5,20.5,9
-52.25,53.25,-7.5,-17.25,34.25,35.0,34.0,-8.25,9
-52.0,22.0,-12.0,-27.25,42.75,26.0,33.25,26.75,9
-76.0,-3.5,-1.25,-38.25,25.5,24.75,18.25,27.0,9
-110.5,-5.75,-8.0,-45.0,37.25,24.25,17.0,23.75,9
-116.75,2.25,-5.75,-56.25,42.5,10.25,18.5,-19.5,9
-117.75,-13.25,-12.25,-59.25,42.5,20.5,6.75,-76.0,9
-117.25,-12.25,-16.75,-59.75,41.75,20.25,25.75,-11.25,9
-57.5,-30.25,-13.0,-56.0,49.75,24.5,20.75,47.0,9
8.0,-50.75,-8.25,-54.5,54.5,11.25,20.25,44.75,9
73.0,-32.5,1.75,-56.75,49.5,10.75,19.5,56.5,9
87.25,-58.75,-3.75,-42.0,60.0,24.5,-4.0,49.0,9
90.0,-55.25,2.75,-51.75,53.25,17.75,11.5,37.75,9
24.75,-47.0,12.0,-51.75,38.0,27.0,16.5,40.5,9
-71.0,-44.0,3.75,-38.0,50.0,18.0,35.5,33.0,9
-82.25,-33.5,13.25,-56.75,55.0,28.0,39.25,37.25,9
-100.75,-16.25,14.75,-55.5,54.0,35.75,46.75,21.0,9
-102.5,12.0,12.0,-39.75,37.75,28.25,54.75,20.0,9
-129.0,13.5,6.75,-35.0,45.0,26.25,25.75,23.5,9
-97.5,13.75,12.5,-28.5,63.25,17.25,6.25,10.25,9
1.25,3.25,7.75,-33.5,55.5,14.5,-1.25,5.75,9
87.5,8.5,-4.5,-42.5,58.25,18.75,17.75,4.25,9
136.25,21.0,14.75,-38.0,60.0,13.25,11.0,-0.75,9
83.5,13.5,7.25,-33.5,63.0,26.25,37.25,-16.0,9
35.5,4.0,9.0,-30.0,55.75,27.5,61.75,-26.25,9
-15.5,-2.75,6.75,-14.0,52.0,19.5,34.25,-28.75,9
-35.75,16.5,1.25,-9.25,44.25,33.75,2.75,-43.25,9
-43.75,39.5,5.25,6.75,22.5,30.25,2.25,-65.0,9
-87.0,35.25,-11.25,14.25,4.75,29.5,33.0,-28.25,9
-74.75,25.75,-12.25,22.0,11.5,41.75,23.75,21.25,9
-84.75,32.5,-16.25,28.0,25.75,34.0,38.0,22.0,9
-116.25,31.0,-13.5,23.0,15.25,27.75,43.75,6.75,9
-93.75,32.25,-17.75,31.25,-1.5,28.25,55.75,-13.5,9
-78.5,34.25,-34.5,40.5,-31.25,11.0,45.75,-56.0,9
-73.75,25.75,-43.0,37.0,-24.0,11.5,2.0,-123.5,9
-39.25,19.5,-43.5,26.75,-15.75,18.0,18.5,-148.25,9
0.25,5.0,-36.5,25.25,-31.25,13.25,24.0,-143.75,9
72.0,17.5,-44.5,23.25,-30.75,19.25,18.25,-131.25,9
139.5,16.0,-43.75,35.25,-19.75,7.75,12.75,-137.25,9
222.0,12.0,-31.5,35.0,-23.0,0.75,7.75,-180.5,9
291.75,14.5,-27.25,25.0,-25.75,13.25,17.25,-217.5,9
279.75,29.5,-26.75,27.0,-28.0,10.75,30.0,-139.5,9
251.0,18.0,-37.0,28.0,-34.25,14.5,27.25,-111.5,9
218.25,-13.5,-34.25,24.75,-21.5,4.5,32.25,-174.25,9
132.0,-15.75,-43.25,15.25,-23.5,7.5,36.5,-94.25,9
6.5,-22.75,-37.0,3.0,-5.0,17.75,23.5,-6.5,9
-96.75,-28.0,-23.5,3.25,11.0,4.25,9.75,8.75,9
-189.5,-29.75,-21.25,2.0,9.0,19.5,8.25,9.25,9
-234.5,-17.0,-11.25,7.25,19.75,18.25,8.5,17.5,9
-206.75,1.75,-12.5,-1.25,24.75,11.5,-7.0,13.5,9
-157.25,3.75,-13.75,-15.75,21.5,36.25,-8.75,-3.0,9
-111.75,27.75,-9.75,6.5,16.25,30.5,-13.5,-2.75,9
-101.25,43.25,-5.5,11.25,6.5,31.25,2.75,5.0,9
-103.75,37.75,-15.0,2.0,2.0,43.5,2.25,-24.5,9
-65.0,29.25,-13.5,0.75,7.5,32.5,-2.75,-21.25,9
-32.25,21.5,-19.75,-6.5,7.75,17.25,-1.75,76.75,9
-43.5,33.75,-8.75,-16.0,-5.0,15.75,-5.0,79.25,9
-44.75,45.0,0.25,-10.75,-2.0,7.5,9.75,52.5,9
-18.25,28.0,-20.25,-3.0,-2.75,6.75,19.75,44.0,9
-42.5,23.75,-13.0,-1.0,-9.75,21.0,8.5,41.0,9
-62.25,9.0,-13.5,3.25,14.25,19.25,10.75,10.0,9
-33.0,-4.75,-3.0,-7.25,5.5,25.75,32.25,-86.25,9
-16.0,-2.5,0.0,-20.25,8.5,24.25,41.75,-16.75,9
5.5,-19.25,-1.25,-16.0,11.25,17.25,40.25,78.5,9
33.0,2.75,-1.5,-21.75,2.75,19.25,-7.25,81.75,9
67.75,0.25,-3.25,-31.5,15.25,22.0,-32.0,97.25,9
78.5,-11.75,5.75,-26.5,11.25,25.75,-2.0,98.0,9
60.5,-19.5,2.25,-27.75,21.0,22.0,1.75,96.5,9
-8.25,-33.75,2.5,-29.5,21.75,27.75,24.75,103.5,9
-28.25,-39.0,-8.5,-24.25,12.25,29.25,19.75,96.0,9
5.25,-36.25,-3.5,-22.0,3.25,23.0,16.5,102.0,9
44.75,17.75,-5.5,-30.0,5.0,29.0,37.5,103.75,9
78.25,37.5,-15.25,-25.5,10.75,31.75,30.0,81.25,9
74.0,39.5,-15.0,-26.75,5.5,35.5,45.0,64.75,9
101.5,28.75,-9.5,-39.75,3.75,31.5,32.75,52.25,9
124.25,23.25,-3.5,-12.0,10.25,28.0,27.5,49.0,9
141.75,26.25,-15.5,-9.5,0.75,29.0,17.25,52.5,9
120.5,4.75,-9.0,-6.5,-7.0,17.25,4.5,40.25,9
52.25,-10.5,-13.75,-13.0,-9.25,23.0,9.5,34.75,9
11.5,-29.5,-24.5,-12.75,-23.5,20.75,30.0,60.75,9
8.75,-31.75,-25.5,-15.5,-12.0,24.25,43.75,84.75,9
28.75,-19.5,-19.5,-19.5,-13.75,29.5,36.0,124.0,9
7.5,-26.25,-10.0,-18.75,-14.0,17.25,32.75,111.5,9
15.5,-27.5,-9.25,-18.75,-8.0,7.25,20.0,70.75,9
2.0,0.75,-2.5,-17.25,-17.5,17.25,29.5,33.0,9
-41.5,8.25,-11.25,-28.5,-12.5,22.75,28.75,-47.0,9
-102.75,2.75,3.25,-26.0,-6.0,19.25,29.5,-124.25,9
-161.0,2.0,2.0,-25.5,2.5,30.25,36.5,-195.0,9
-183.25,-10.75,-3.5,-29.0,23.0,34.0,36.25,-247.75,9
-214.5,-11.0,3.75,-36.0,28.75,17.5,41.25,-174.25,9
-214.0,-9.75,0.75,-36.5,36.75,16.5,42.25,11.0,9
-230.25,-8.25,8.0,-38.5,39.0,23.25,39.25,19.0,9
-218.75,17.75,2.0,-35.0,39.25,28.25,41.25,22.75,9
-146.0,22.75,5.0,-33.0,43.75,38.5,56.75,47.0,9
-17.75,14.25,12.0,-46.5,45.25,33.25,46.25,35.75,9
70.0,13.25,9.0,-44.75,59.5,29.5,42.75,80.25,9
73.5,-4.0,11.75,-43.5,37.75,25.0,35.0,41.0,9
82.25,-21.5,10.0,-36.5,36.0,26.75,-3.75,82.5,9
98.5,-40.5,5.5,-29.25,39.0,27.5,2.75,98.75,9
89.0,-46.75,8.25,-44.0,31.0,18.75,38.5,83.0,9
88.0,-27.5,7.5,-50.5,44.5,14.25,44.0,90.5,9
71.25,-16.75,4.75,-48.0,47.5,22.75,23.0,69.75,9
-19.0,-27.75,10.0,-54.25,48.75,24.0,17.5,48.0,9
-77.0,-22.75,6.5,-52.75,45.75,16.5,14.5,52.0,9
-118.5,-29.0,1.75,-50.75,58.75,25.0,26.5,110.5,9
-48.25,-44.0,-1.75,-55.0,58.25,24.25,20.25,93.25,9
113.0,-38.75,-9.5,-59.25,55.75,26.0,10.0,24.0,9
121.25,-27.25,-2.75,-50.75,61.0,13.5,27.5,80.0,9
61.0,-21.0,-4.0,-34.5,51.75,17.25,36.5,132.75,9
51.0,-7.5,5.5,-30.5,38.0,28.5,8.25,41.0,9
51.25,10.25,9.75,-28.75,38.5,24.5,-30.0,3.25,9
37.0,5.25,-1.5,-25.75,36.25,35.5,-26.25,-117.5,9
6.25,14.5,9.5,-31.75,37.25,10.25,8.0,-258.25,9
-41.25,7.0,12.25,-41.5,51.0,8.0,26.75,-154.5,9
-70.75,-3.25,14.25,-45.0,55.5,27.25,18.5,-101.75,9
-115.5,-2.25,6.0,-39.0,46.0,21.0,9.5,-95.0,9
-224.5,14.25,-5.75,-26.0,41.0,15.0,16.5,63.75,9
-314.75,10.0,-6.75,-22.75,30.0,18.25,20.25,192.75,9
-265.5,3.0,-14.25,-21.75,16.5,28.25,19.5,256.0,9
-175.5,33.25,-18.75,-20.0,29.5,22.0,9.75,272.25,9
-84.25,37.25,-14.75,-21.25,27.0,34.5,13.25,200.75,9
-27.25,24.5,-19.0,-19.5,19.25,27.75,11.75,110.75,9
-46.75,4.75,-12.25,-18.75,16.25,30.75,20.0,36.0,9
-34.75,4.25,-8.0,-11.25,15.25,29.25,27.0,-38.75,9
40.25,2.25,-4.0,-9.5,27.0,27.75,26.25,-219.25,9
134.0,11.75,-0.5,-6.0,22.75,40.25,41.75,-340.25,9
56.0,11.0,1.0,9.5,21.75,36.0,25.75,-210.25,9
7.0,-7.0,2.25,-3.5,25.25,38.25,23.0,-106.0,9
0.5,-5.5,-12.5,-7.75,25.5,18.0,21.0,-25.25,9
-48.75,3.25,-9.25,2.25,15.0,15.75,11.25,83.5,9
-137.75,15.0,-8.5,3.5,7.5,11.25,26.0,37.0,9
-219.25,8.0,-21.75,11.25,7.25,5.5,24.0,56.75,9
-193.75,-15.75,-13.0,9.0,18.5,10.25,22.25,52.0,9
-166.5,-31.25,-14.75,3.5,12.25,12.75,15.0,50.5,9
-140.75,-26.5,-25.75,-10.5,9.25,10.5,10.0,67.0,9
-182.75,3.25,-33.0,-0.25,-0.5,12.5,5.0,61.25,9
-213.25,19.5,-30.75,8.0,-9.0,11.0,2.75,149.5,9
-192.5,37.5,-37.75,9.25,-5.0,6.0,18.0,150.5,9
-47.75,64.0,-28.25,24.0,-12.5,5.5,16.0,114.0,9
98.0,36.75,-16.0,17.5,-6.25,-3.25,22.75,80.0,9
104.0,23.0,-27.5,6.5,1.5,6.75,17.0,28.75,9
179.25,45.5,-27.0,6.75,7.0,6.75,0.75,-2.5,9
276.5,39.25,-29.0,3.25,4.25,9.5,-5.0,-67.5,9
310.25,25.75,-12.75,0.0,13.25,10.75,9.0,-189.75,9
289.75,19.25,-11.25,-8.5,11.25,4.0,29.25,-110.0,9
245.5,0.25,-3.0,-7.0,19.0,14.0,17.25,51.5,9
131.25,-47.75,-9.5,-7.5,40.5,12.75,23.25,38.5,9
71.5,-74.25,-9.75,-11.5,39.0,22.0,25.0,69.75,9
211.0,-56.0,11.0,-6.5,36.0,41.25,24.75,74.0,9
252.75,-24.25,-11.75,-12.0,37.5,41.0,28.0,85.5,9
206.0,14.75,6.0,-1.75,45.0,24.0,31.75,106.75,9
53.0,0.25,1.0,-9.0,37.0,28.0,19.75,118.75,9
-167.75,-30.0,-4.0,-19.75,38.75,23.25,-9.25,206.0,9
-241.0,-27.5,-0.75,-10.0,45.75,20.75,10.75,277.5,9
-282.5,-48.75,-15.25,-17.25,37.0,21.75,18.5,332.5,9
-219.0,-32.0,-6.75,-23.0,38.75,20.75,22.5,299.5,9
-182.25,9.0,-10.0,-22.5,38.75,38.75,27.5,171.25,9
-134.0,18.5,-10.0,-6.75,44.75,33.5,15.75,15.5,9
-34.5,30.75,-7.75,-17.75,42.5,32.25,27.25,-140.75,9
6.25,6.0,-4.0,-23.5,37.75,33.75,17.25,-318.5,9
81.0,-2.75,-7.25,-6.0,32.25,30.0,22.5,-378.75,9
108.25,0.25,-8.25,-14.25,14.5,29.25,13.75,-277.0,9
99.75,-30.5,-19.25,-9.5,17.25,19.25,11.0,-167.0,9
72.5,-18.5,-6.0,-23.75,-4.5,18.25,23.25,-80.5,9
-23.75,-4.75,-3.5,-24.0,7.0,13.0,15.75,3.0,9
-120.5,4.5,-27.0,-18.75,16.75,9.0,0.5,67.5,9
-139.25,17.75,-10.75,-20.0,21.0,8.75,0.0,117.0,9
-178.0,15.75,-2.5,-13.75,15.25,17.75,20.5,98.75,9
-184.5,54.5,-4.75,-21.0,10.0,25.5,13.5,25.0,9
-135.0,77.5,-6.0,-17.25,21.75,16.5,10.25,112.5,9
-96.25,50.75,-6.5,-16.75,1.75,4.25,-3.25,139.5,9
-1.75,23.5,2.25,-14.25,13.25,-3.5,9.0,59.25,9
104.5,28.75,13.75,-9.5,10.25,-2.0,12.25,95.0,9
146.25,38.0,7.5,-12.5,19.0,-1.5,0.25,52.25,9
118.0,29.0,-4.0,-28.0,11.0,-5.75,11.25,-46.75,9
52.25,14.5,-16.5,-31.75,13.25,0.75,5.75,-22.75,9
-6.75,-11.25,-24.5,-36.5,38.25,9.75,13.5,145.5,9
19.0,-10.5,-2.5,-33.25,25.0,13.25,17.5,126.0,9
43.5,-8.75,6.75,-18.5,30.5,14.25,24.0,103.0,9
41.75,-34.75,3.5,-8.5,24.5,20.5,40.25,152.25,9
43.25,-28.75,4.0,-9.5,30.75,14.75,25.75,92.5,9
48.25,-9.75,-8.5,-10.25,30.75,11.5,20.25,112.5,9
97.0,-16.5,-20.0,-20.25,33.75,26.0,23.25,86.75,9
115.0,-17.0,-7.75,-23.5,32.75,24.5,26.0,95.75,9
133.25,-3.25,-2.5,-13.0,34.0,21.5,32.0,93.5,9
167.75,-20.5,-13.25,-25.0,44.5,22.75,26.75,81.75,9
211.75,-13.5,-11.0,-16.25,35.75,21.5,38.5,83.25,9
325.5,9.25,-5.0,-10.0,25.75,21.0,34.25,64.75,9
323.5,5.75,-10.25,-8.75,26.5,32.0,40.0,81.25,9
139.75,18.0,0.0,-4.0,40.5,37.25,54.5,83.5,9
14.75,21.75,14.5,-6.5,48.5,42.25,36.5,69.0,9
-143.0,25.5,-4.75,-8.25,50.25,43.75,43.5,60.5,9
-223.0,9.5,-3.5,-8.0,48.0,40.75,26.0,71.5,9
-182.25,4.75,-7.5,-6.25,39.25,41.25,25.75,63.0,9
-222.0,1.0,-8.25,-5.25,29.5,39.75,44.0,66.75,9
-250.75,-12.25,-1.25,-1.0,22.5,35.25,39.0,42.75,9
-253.5,-15.25,-3.5,-1.5,20.25,36.75,20.75,34.75,9
-247.5,-24.5,-6.25,-1.0,23.75,43.25,14.25,42.0,9
-272.5,-25.5,-18.75,-8.0,14.5,35.5,27.75,36.5,9
-184.5,-21.0,-14.75,-16.5,26.0,34.5,25.25,36.5,9
-150.25,-13.5,-30.5,-22.75,19.5,40.25,25.0,27.25,9
-214.0,-11.0,-29.5,-22.5,1.5,44.25,9.0,24.5,9
-211.0,-3.75,-15.5,-28.0,4.25,42.75,15.5,3.25,9
-85.75,7.25,-13.75,-31.75,-16.0,43.0,20.75,-2.75,9
25.75,22.5,-20.0,-30.75,-8.25,43.0,5.75,0.5,9
115.25,29.75,-21.25,-42.0,1.5,31.75,20.0,36.75,9
243.0,31.0,-25.25,-27.25,0.25,37.75,25.0,80.75,9
206.25,38.75,-19.75,-19.0,-5.75,42.0,21.5,69.25,9
165.75,42.0,-32.25,-13.25,-1.5,40.25,25.5,29.25,9
77.25,41.5,-41.0,-9.5,1.5,29.25,23.0,-9.5,9
-7.75,25.25,-24.0,-14.0,-7.75,13.5,18.75,-52.0,9
-10.75,26.25,-26.25,-14.5,0.5,16.25,25.25,-92.5,9
-24.75,20.5,-10.5,-22.75,8.75,17.0,27.5,-192.75,9
7.5,5.25,-9.5,-13.5,22.0,11.0,18.75,-225.25,9
41.75,-1.0,-16.0,-5.75,25.25,4.0,24.75,-42.25,9
71.0,-23.5,-10.5,-9.25,22.5,8.25,19.25,68.75,9
64.5,-29.0,-20.0,-7.0,17.5,18.0,14.75,35.5,9
90.75,-24.5,-9.0,-6.0,17.75,15.0,19.0,68.0,9
94.0,-8.25,-4.5,-5.5,5.0,16.25,3.75,53.0,9
79.0,9.25,-17.25,12.5,20.75,15.0,21.0,-52.0,9
57.5,29.75,-1.25,11.75,34.5,23.0,46.0,-121.25,9
-17.25,14.75,-6.0,22.0,20.75,25.25,39.75,-191.75,9
-46.25,-7.0,-16.0,18.5,25.75,20.75,35.0,-190.25,9
-82.75,1.25,-12.0,3.25,24.5,17.75,13.75,-141.25,9
-52.75,14.5,-13.25,3.5,22.25,18.5,17.25,-135.0,9
-9.5,15.75,-15.25,-8.5,19.5,6.75,22.25,-33.5,9
-18.25,11.25,-15.25,-12.5,18.0,5.75,21.5,33.25,9
-19.0,18.75,-13.0,-22.5,8.5,7.0,33.5,11.25,9
-25.5,11.75,-25.5,-38.75,6.0,2.25,25.25,26.0,9
18.0,24.5,-21.75,-31.25,11.0,14.5,30.0,-3.25,9
39.5,12.5,-20.75,-25.0,-2.0,14.5,34.5,12.25,9
80.0,25.25,-20.0,-30.5,-4.0,13.75,33.75,-10.0,9
131.0,27.0,-18.25,-24.75,8.0,9.25,28.25,-22.0,9
99.5,1.25,-23.0,-28.0,4.5,18.75,22.75,-5.75,9
81.0,0.75,-17.75,-30.75,-16.5,17.0,16.0,-19.0,9
43.25,-28.5,-14.25,-24.25,-15.75,11.0,16.75,-15.5,9
-8.25,-31.0,-21.25,-27.25,-12.25,24.25,18.75,-26.25,9
-56.5,-37.25,-26.5,-22.25,-12.75,23.25,9.5,-17.5,9
-115.5,-27.75,-27.5,-22.0,-18.25,16.0,7.75,-20.5,9
-67.25,-4.25,-21.5,-24.75,-5.5,25.75,-8.0,-23.5,9
33.25,3.5,-24.75,-26.5,4.25,25.0,-3.25,-29.0,9
71.5,9.5,-22.5,-23.25,-8.0,11.75,19.75,-42.0,9
5.0,12.75,-24.0,-11.75,-12.25,18.5,26.0,-43.5,9
-60.25,6.5,-27.25,-18.75,-4.0,19.75,29.25,-52.75,9
-90.25,-2.0,-10.0,-17.25,15.0,29.25,19.0,-47.25,9
-98.5,-4.5,-4.75,-16.5,10.75,24.5,16.0,-26.5,9
-79.75,-24.5,-8.25,-12.75,1.5,20.25,27.25,-7.0,9
-7.0,-7.75,-2.25,-3.5,11.0,16.5,18.25,-1.5,9
37.25,13.5,-3.5,-20.5,19.25,25.75,9.25,11.25,9
-2.75,8.5,-3.5,-15.75,17.0,36.25,15.0,22.75,9
-21.5,15.0,5.5,-5.0,9.0,24.25,28.75,11.0,9
-40.0,10.5,0.5,-16.75,14.0,34.25,17.5,25.5,9
-4.75,5.0,7.5,-7.5,22.75,34.75,6.75,2.5,9
48.25,24.5,14.0,-3.5,25.25,41.75,40.25,7.75,9
90.75,23.5,5.0,-14.25,18.75,29.25,39.75,69.0,9
89.75,12.0,8.0,-11.5,11.75,18.5,34.5,13.0,9
-14.0,-5.75,16.5,-8.5,25.0,36.75,38.0,76.0,9
-130.25,-26.0,12.25,-14.75,27.25,40.25,25.75,80.0,9
-228.25,-20.75,5.5,-22.75,20.0,32.0,32.5,-7.75,9
-231.75,-11.0,-2.25,-20.5,26.5,19.5,34.25,3.5,9
-197.75,2.25,-18.0,-20.75,25.75,19.75,29.75,-73.75,9
-223.25,-0.75,-6.0,-22.5,9.0,16.75,17.25,-62.0,9
-172.25,-29.25,1.75,-17.5,10.75,13.5,15.5,-139.0,9
-40.25,-34.75,-2.5,-23.75,32.25,14.75,3.5,-336.5,9
142.5,-22.5,0.5,-18.75,25.75,15.75,-8.5,-231.5,9
254.25,-23.0,-0.25,-13.5,32.25,25.5,5.0,-73.5,9
310.0,-11.75,-0.25,-23.0,42.0,26.5,17.5,-184.0,9
312.5,9.75,-0.25,-28.25,28.5,22.0,12.75,-71.75,9
180.25,24.75,1.75,-30.5,23.75,20.0,18.5,119.5,9
88.5,25.0,3.0,-35.0,28.5,17.25,17.75,85.25,9
-9.0,16.25,-11.5,-29.25,27.0,18.0,22.75,122.75,9
-64.0,19.75,-11.25,-23.0,26.0,17.25,31.75,124.0,9
-21.5,16.5,-10.75,-27.0,24.0,12.75,25.75,127.5,9
15.0,7.0,-9.75,-18.25,16.5,24.75,27.5,132.0,9
-38.75,1.5,-4.5,-19.75,12.25,35.5,30.0,122.0,9
-93.5,-3.25,-5.5,-30.25,16.0,31.75,41.0,126.75,9
-120.75,0.75,1.75,-28.75,28.0,33.0,34.25,113.25,9
-179.25,6.0,5.5,-23.75,29.75,30.0,18.75,121.5,9
-224.25,18.0,7.75,-22.25,35.0,27.75,20.5,101.75,9
-249.0,-1.5,5.5,-16.25,40.25,20.75,24.0,95.25,9
-218.5,-3.0,11.25,-20.0,31.25,26.75,34.75,83.5,9
-157.5,16.25,1.5,-22.25,27.0,24.25,26.0,81.0,9
-98.75,1.25,4.5,-16.5,40.25,23.5,17.0,83.25,9
-41.0,2.75,10.75,-13.25,43.25,27.5,5.75,88.25,9
6.0,-18.0,13.25,-3.5,49.75,31.0,16.5,136.5,9
50.25,-41.75,17.5,-7.0,64.5,52.25,32.75,201.0,9
115.5,-30.0,8.75,-7.0,62.0,54.0,37.25,213.75,9
151.0,-7.0,24.75,-2.5,70.25,43.25,33.0,153.0,9
71.75,17.0,11.5,-21.75,66.75,32.25,22.0,134.5,9
-53.75,-9.75,8.75,-30.0,63.75,31.75,23.25,109.75,9
-125.0,-47.0,7.25,-36.5,63.25,35.75,4.25,111.0,9
-106.5,-37.25,9.75,-35.75,61.25,31.75,2.25,77.75,9
-62.25,-24.75,10.75,-29.75,44.0,12.5,-7.25,10.5,9
-98.5,-32.75,-11.75,-25.5,42.75,16.25,-27.75,-18.0,9
-174.5,-40.5,12.25,-24.75,60.75,19.0,-17.5,3.5,9
-202.75,-34.75,2.0,-40.75,57.75,9.0,15.25,-10.75,9
-192.75,-16.0,-1.75,-23.25,53.75,18.25,24.75,-157.5,9
-173.75,1.0,-1.5,-31.75,45.5,23.25,19.75,-196.75,9
-116.25,-9.5,-16.25,-32.0,40.5,16.75,25.0,-64.5,9
-30.25,-17.75,-11.75,-33.5,29.5,3.5,25.25,43.75,9
44.25,-11.25,-18.0,-30.25,16.75,2.5,28.75,48.25,9
85.0,-10.5,-16.0,-19.25,20.0,-1.75,14.25,19.0,9
91.25,-7.25,-27.0,-24.25,14.5,-11.75,8.25,-10.25,9
61.5,-3.0,-26.5,-19.5,7.0,5.5,15.75,-16.75,9
61.0,6.0,-23.0,-25.0,15.25,7.75,12.5,-35.25,9
43.25,2.75,-31.5,-16.0,19.0,4.5,15.5,-46.5,9
16.25,-7.75,-22.25,-18.5,22.0,-0.75,17.75,-45.25,9
6.75,-3.75,-30.75,-23.25,23.75,-8.5,24.0,-73.25,9
-8.75,-10.75,-25.5,-26.25,18.25,12.75,31.75,-66.0,9
-5.0,-14.75,-18.75,-18.25,34.75,20.75,32.5,-82.0,9
21.5,-20.5,-17.0,-21.75,31.5,14.0,24.25,-81.25,9
44.25,2.5,-11.25,-32.75,30.0,16.75,25.0,-72.5,9
55.0,30.75,-12.25,-21.5,42.25,16.75,33.5,-80.75,9
60.5,31.25,1.0,-23.0,39.75,19.75,29.75,-72.0,9
55.75,37.25,-8.25,-30.0,40.75,24.75,29.5,-74.0,9
48.5,30.75,-7.25,-32.5,36.25,25.25,30.75,-69.0,9
22.0,34.75,-9.5,-17.25,43.0,24.5,40.5,-65.5,9
-26.0,35.5,-5.75,-9.25,53.75,31.75,61.75,-52.5,9
-72.25,28.75,-0.5,-6.25,56.0,28.5,49.5,-48.5,9
-134.5,20.5,-4.25,-4.0,35.75,19.0,34.5,-38.25,9
-213.5,-3.5,-5.0,-4.25,32.0,12.75,32.25,-13.0,9
-186.0,-5.25,-23.5,-9.25,40.5,28.0,22.0,-16.5,9
-105.5,9.5,-15.75,-19.0,40.25,18.5,41.25,-11.0,9
-4.75,20.75,-14.0,-23.0,51.25,15.5,33.25,-7.25,9
137.25,17.75,-5.25,-18.75,52.5,21.0,19.5,19.0,9
219.25,23.75,-7.0,-25.0,46.5,22.0,15.5,51.0,9
249.5,17.75,-12.25,-24.75,38.75,30.25,1.0,93.75,9
202.75,-2.25,-5.5,-16.0,43.5,22.5,14.25,108.75,9
67.75,-6.5,-5.75,-16.0,50.5,23.75,4.0,78.5,9
-50.0,-36.75,10.5,-21.25,49.5,21.5,-12.5,76.25,9
-121.5,-28.75,-1.25,-18.25,42.5,25.5,9.0,31.0,9
-106.75,-16.25,0.5,-10.5,45.75,18.0,18.0,-27.75,9
-57.0,-21.25,14.75,-16.75,44.0,14.5,20.0,-95.25,9
-60.25,-9.25,6.0,-12.75,37.75,14.0,35.0,-158.25,9
-60.0,-25.25,10.0,-22.0,32.0,9.75,32.75,-46.75,9
-22.25,-17.25,2.75,-15.5,19.5,25.0,17.25,50.5,9
20.5,2.0,-0.5,-3.75,24.0,28.25,35.75,35.25,9
20.75,27.75,-6.0,-16.75,15.5,28.25,36.25,59.75,9
1.75,54.75,-17.75,-7.75,7.5,14.0,36.25,48.5,9
-27.25,45.0,-17.0,-10.0,5.75,12.25,39.25,39.25,9
-7.25,31.0,-19.25,-1.25,0.0,10.0,12.5,31.5,9
35.5,9.5,-15.25,5.25,5.0,15.5,-2.0,20.5,9
69.0,-10.0,-11.75,-10.0,6.5,26.0,8.75,24.25,9
102.75,-5.75,-16.5,-0.5,-1.75,22.25,16.0,1.5,9
120.0,15.75,-20.0,-11.25,-10.0,18.75,6.5,-6.5,9
115.25,19.5,-19.75,-1.25,-9.25,26.0,17.0,-12.75,9
76.25,10.0,-17.0,6.0,-18.0,27.75,5.0,5.0,9
31.25,-28.75,-17.0,-5.75,-18.25,21.25,1.75,14.5,9
-23.5,-30.75,-19.25,3.25,-9.5,28.5,-2.0,21.75,9
-44.75,-3.75,-17.0,1.75,-3.25,21.5,-4.25,13.0,9
-56.5,-12.75,-11.5,1.75,0.75,15.75,13.75,-3.75,9
-63.0,4.75,-13.25,-5.25,-7.5,6.0,-3.25,8.75,9
-53.5,9.5,-5.5,-4.25,-10.5,10.0,7.5,7.75,9
-63.25,1.5,-11.75,-0.5,-11.0,4.75,10.75,24.0,9
-70.5,6.25,-19.25,-5.75,-9.25,4.5,10.0,46.25,9
-58.0,6.5,-18.25,-3.0,-9.0,5.0,20.0,45.25,9
-41.25,3.75,-26.25,-5.5,-26.25,0.75,13.0,41.0,9
-43.25,0.5,-25.25,-7.5,-28.0,13.25,19.0,33.75,9
-33.5,6.75,-27.5,-4.5,-18.5,0.5,36.0,22.5,9
-34.75,12.75,-34.75,-8.0,-2.0,-6.0,38.5,25.25,9
-53.0,2.25,-26.75,-14.5,8.0,4.25,27.75,32.5,9
-55.75,-14.25,-25.75,-16.5,0.0,8.25,16.5,26.0,9
-37.75,-34.25,-22.0,-22.0,0.0,-4.25,24.25,42.0,9
-25.5,-49.25,-14.25,-16.5,-14.25,-1.0,17.25,29.0,9
3.0,-6.75,-10.25,-5.75,-18.5,0.0,-2.0,26.75,9
26.75,25.75,-15.5,-7.75,-20.75,-1.0,-4.0,43.75,9
1.75,27.0,-21.5,-15.75,-21.0,9.5,4.5,28.5,9
5.5,26.5,-21.75,-9.0,-4.75,15.75,12.25,34.25,9
-2.5,26.0,-25.25,3.75,7.25,21.25,20.25,48.25,9
-10.0,20.75,-30.25,7.5,10.75,19.0,30.0,43.75,9
-0.5,24.25,-24.25,12.25,14.0,22.75,21.0,31.0,9
-12.5,26.0,-21.0,-5.0,18.0,25.25,37.75,25.75,9
-20.5,9.5,-24.0,-7.75,23.25,31.25,42.0,21.75,9
-24.0,11.0,-6.5,-7.5,21.25,37.25,29.75,17.5,9
-29.75,29.25,-9.5,-9.75,17.75,29.5,22.25,26.75,9
-26.25,41.75,-8.5,-16.5,14.75,47.0,1.0,18.0,9
-35.75,30.5,3.0,-23.0,7.25,63.25,15.5,9.0,9
-49.0,16.25,2.25,-11.25,8.25,48.25,33.0,8.75,9
-45.75,-0.75,9.5,-13.25,7.75,34.25,24.75,14.0,9
-22.5,-0.5,19.25,-11.75,20.5,31.0,29.75,17.5,9
-16.5,-7.5,22.5,-23.0,27.25,50.25,2.0,34.25,9
-19.75,-18.5,31.75,-20.0,29.25,44.75,0.5,50.75,9
-4.25,-1.0,30.5,-30.75,27.5,47.0,23.5,54.5,9
-0.25,8.75,22.5,-25.25,16.0,62.25,15.5,53.5,9
-13.0,25.5,25.25,-15.5,21.5,48.0,33.0,49.5,9
-15.5,36.75,21.75,-34.0,18.5,47.25,26.75,46.25,9
-10.5,61.0,20.25,-35.25,11.75,42.5,30.5,27.5,9
-3.5,60.0,21.75,-38.25,15.0,47.0,27.5,9.25,9
9.25,60.0,16.75,-36.5,11.75,42.25,20.0,-4.75,9
-2.75,57.0,0.75,-40.0,-4.0,27.0,28.0,-2.5,9
-18.75,45.25,0.5,-30.5,-4.75,31.75,24.25,-12.25,9
-30.25,34.0,-5.75,-13.75,-6.75,23.0,34.5,-17.5,9
-53.75,-10.75,-2.75,-17.75,-3.75,11.5,28.75,-13.0,9
-48.0,-47.0,-5.75,-20.0,4.25,22.5,23.0,-17.25,9
-42.75,-80.75,-19.0,-17.75,9.75,21.5,36.0,3.5,9
-33.75,-100.0,-14.75,-20.0,23.25,11.5,31.25,-0.5,9
-12.0,-76.5,-19.75,-16.25,14.0,10.5,24.5,4.25,9
13.5,-86.5,-17.0,-11.25,15.5,0.5,25.0,11.75,9
36.25,-98.75,-15.5,-13.75,16.25,10.25,53.0,0.75,9
44.5,-46.75,-16.25,-5.5,15.0,10.75,36.75,12.0,9
34.25,-22.25,-21.0,9.0,6.5,23.75,11.5,-4.5,9
11.25,-12.25,-28.0,6.25,2.5,29.25,32.0,-14.75,9
3.5,-16.5,-28.75,-5.75,16.75,24.25,28.25,-10.25,9
-7.75,-24.75,-21.0,-8.0,7.5,25.25,23.5,-3.5,9
-13.75,-42.0,-27.0,-17.75,13.75,26.25,21.5,-3.0,9
-29.0,-45.5,-19.5,-8.5,31.0,35.0,25.25,-7.0,9
-50.25,-21.0,-19.5,-5.0,39.75,33.0,43.0,18.25,9
-59.25,-6.75,-19.25,-6.5,39.5,38.5,53.75,41.5,9
-58.0,0.5,-17.75,-2.5,35.75,35.75,55.0,36.5,9
-57.5,-4.25,-29.5,-3.0,33.5,43.25,45.0,23.75,9
-65.0,-30.25,-3.25,8.25,35.75,28.0,33.25,46.75,9
-80.5,-33.5,-6.25,0.75,60.0,3.25,12.25,35.25,9
-98.0,-17.5,6.0,10.5,70.5,22.75,31.0,19.25,9
-112.5,-21.75,32.25,27.0,74.75,13.25,56.75,24.25,9
-185.75,-4.0,40.25,29.5,99.0,12.75,58.75,17.0,9
-291.0,-30.75,59.5,42.75,127.25,57.5,58.75,17.75,9
-363.25,-59.75,68.75,63.0,144.25,47.25,56.75,-8.25,9
-434.25,-52.75,91.75,85.5,172.0,50.0,60.75,-34.5,9
-427.5,-54.5,101.25,96.75,193.0,57.5,62.0,-61.75,9
-346.5,-48.75,107.25,110.75,221.5,49.25,59.5,-101.75,9
-290.25,-53.5,108.75,123.75,254.25,59.0,37.25,-86.75,9
-231.25,-51.5,115.0,121.0,256.25,52.75,21.5,-61.0,9
-208.5,-69.25,111.75,119.5,261.75,49.75,34.75,-61.75,9
-225.25,-102.5,98.25,139.5,273.75,43.25,21.25,-42.0,9
-257.5,-112.75,100.75,129.5,229.5,41.25,27.5,-5.0,9
-162.75,-50.5,65.25,79.25,156.0,15.75,37.25,14.5,9
-38.75,-21.0,29.25,48.5,117.75,-1.75,12.25,63.0,9
25.75,-24.25,9.25,14.75,66.0,-19.25,15.75,36.5,9
124.0,-3.25,-20.5,-29.0,23.25,-23.25,2.25,-25.75,9
178.5,0.25,-28.25,-58.75,-17.25,-14.75,-1.0,41.5,9
258.25,30.25,-56.5,-109.0,-68.5,-23.75,18.25,107.75,9
295.0,36.5,-89.0,-123.75,-109.75,-20.25,22.75,61.0,9
309.75,43.75,-98.0,-140.0,-151.5,-29.75,12.75,0.5,9
308.25,59.25,-108.75,-171.25,-168.25,-36.75,-6.75,-100.75,9
207.75,70.5,-126.5,-185.0,-193.0,-45.25,-14.25,-19.0,9
257.25,94.25,-120.75,-199.75,-209.75,-39.75,-9.5,171.5,9
406.75,93.25,-115.5,-195.75,-215.25,-16.75,-37.25,126.0,9
454.0,107.0,-122.25,-191.75,-202.5,-12.0,-43.5,160.5,9
469.25,118.0,-117.75,-194.0,-211.0,-26.5,-3.25,182.25,9
421.25,126.5,-135.75,-213.25,-239.0,-28.75,-3.75,188.0,9
232.5,142.25,-145.5,-226.5,-225.75,-31.25,2.0,193.25,9
166.75,129.5,-121.0,-211.25,-180.75,-25.0,11.25,135.25,9
302.0,106.5,-111.25,-205.25,-178.5,-24.75,2.0,155.25,9
384.75,131.5,-134.0,-227.75,-228.5,-32.75,-8.0,160.0,9
430.0,152.75,-152.5,-257.0,-265.75,-17.5,5.25,197.75,9
393.75,173.25,-159.75,-261.0,-286.5,-4.25,6.5,202.25,9
404.0,181.5,-166.0,-247.5,-264.0,15.0,-13.0,170.75,9
406.75,147.0,-153.5,-238.5,-244.25,26.25,-22.75,163.75,9
429.25,132.0,-139.25,-222.25,-214.25,26.25,-32.0,154.25,9
417.75,129.0,-136.25,-201.25,-164.5,-13.75,-24.0,133.75,9
3.75,113.25,-110.75,-182.75,-112.25,-55.25,-26.25,120.5,9
-257.25,96.75,-102.5,-160.75,-66.25,-86.5,-41.5,109.75,9
143.0,80.75,-73.75,-132.25,-35.0,-123.5,-35.0,70.25,9
642.5,53.0,-59.0,-100.25,8.75,-101.75,-32.0,49.75,9
809.5,17.0,-38.25,-73.25,54.25,-36.0,-19.75,14.25,9
678.25,-2.25,2.0,-31.5,95.25,27.5,-10.75,-19.5,9
336.75,-29.0,19.25,5.5,126.0,54.25,-27.5,-47.0,9
-12.0,-65.75,30.5,35.0,154.0,90.0,-7.5,-91.5,9
-311.75,-49.75,42.25,59.0,166.0,96.25,2.25,-103.0,9
-421.0,-54.0,50.0,84.5,173.5,91.25,-0.5,-98.5,9
-414.25,-83.5,51.75,93.5,188.5,111.5,5.25,-110.0,9
-487.0,-72.75,61.75,109.75,180.25,129.25,24.75,-114.75,9
-583.25,-81.0,68.5,115.5,181.0,119.75,35.0,-112.5,9
-547.0,-80.25,77.25,116.25,166.75,101.0,31.0,-117.5,9
-415.25,-78.25,74.75,125.75,160.0,111.5,26.0,-116.5,9
-371.0,-81.25,69.5,119.5,168.25,113.5,5.25,-101.0,9
-357.0,-72.75,70.0,134.75,165.75,103.5,28.25,-98.0,9
-518.25,-61.25,83.75,132.25,170.0,117.75,30.75,-103.5,9
-543.5,-48.0,89.25,118.0,160.5,124.0,48.0,-87.0,9
-232.25,-51.75,65.0,117.5,149.75,106.25,48.75,-73.25,9
-139.0,-52.75,57.75,110.5,131.5,118.0,30.25,-64.75,9
-191.75,-49.75,52.5,98.25,148.25,81.5,43.5,-62.5,9
-186.5,-45.5,60.0,97.5,142.5,51.0,21.0,-61.0,9
-192.5,-42.75,69.75,113.0,138.25,43.25,23.75,-69.25,9
-210.75,-28.75,64.25,103.25,150.5,1.0,24.25,-64.25,9
-212.0,-15.0,55.75,84.5,101.75,9.5,23.5,-37.75,9
-110.75,-14.75,53.0,82.0,91.25,26.25,35.75,-34.0,9
-88.5,-29.25,62.75,87.5,94.0,68.75,48.0,-29.75,9
-63.25,-39.5,52.5,92.75,78.25,109.5,44.75,-42.25,9
-57.75,-34.25,41.0,80.25,62.5,79.25,37.5,-35.75,9
-94.5,-34.5,30.75,68.0,47.25,21.25,40.0,-18.75,9
-74.25,-38.25,34.25,56.5,41.5,16.75,45.75,-38.75,9
-129.75,-34.5,32.75,57.5,49.5,29.0,43.0,-38.0,9
-154.75,-48.75,25.0,58.75,49.0,49.75,32.75,-26.5,9
-187.75,-78.75,35.25,44.25,29.25,51.25,44.0,-5.25,9
-179.5,-74.25,31.5,21.5,14.0,37.75,40.75,12.75,9
-143.25,-43.25,12.0,18.75,7.75,34.75,39.75,42.5,9
-154.0,-17.5,4.75,9.75,8.25,18.25,32.5,76.25,9
-143.0,-25.5,-5.5,-2.75,6.5,26.0,16.25,48.25,9
-51.0,-35.0,-3.25,6.75,-8.25,24.0,8.25,42.25,9
49.5,-10.5,-4.25,-21.0,-22.25,25.25,9.0,59.0,9
66.75,-4.5,-17.25,-30.25,-18.0,25.5,18.5,40.0,9
61.75,1.75,-10.0,-27.25,-27.25,19.25,16.75,32.5,9
34.25,-5.0,-12.0,-14.25,-27.0,15.25,27.0,-35.5,9
23.75,11.25,-4.75,-7.75,-21.5,17.0,37.0,-2.75,9
11.25,44.25,-10.25,-19.0,-23.0,35.5,42.25,161.5,9
-69.75,20.0,-13.25,-1.5,-14.5,48.75,44.25,167.25,9
-156.25,-1.5,-4.0,-9.75,-10.0,39.25,42.25,127.0,9
-140.0,-1.5,-8.75,-9.5,-6.75,30.25,49.5,126.75,9
-27.5,2.25,-8.0,-6.25,2.25,55.0,52.0,35.5,9
104.25,12.75,-1.5,-9.75,18.5,52.0,65.0,-39.75,9
178.5,-1.0,-11.25,-9.75,21.75,44.5,67.25,-122.25,9
179.75,-35.0,-17.0,-22.5,28.75,28.5,60.75,-39.25,9
146.5,-67.0,-15.25,-33.5,21.0,4.75,51.0,22.5,9
145.75,-70.25,-31.5,-42.75,7.75,0.25,50.25,-50.5,9
186.0,-63.0,-30.5,-52.25,-8.5,-12.25,39.0,35.25,9
184.75,-38.25,-44.0,-52.75,-22.75,-26.0,26.75,115.0,9
136.5,-19.25,-55.0,-55.25,-17.5,-34.25,34.75,142.5,9
105.25,-14.25,-40.75,-57.5,-20.5,-26.25,43.25,150.25,9
62.25,21.0,-35.0,-61.25,-17.0,-6.25,52.0,153.5,9
45.0,42.0,-42.75,-67.25,-24.25,-4.25,37.5,130.75,9
56.75,62.25,-45.0,-73.5,-26.25,8.25,32.5,113.5,9
22.0,77.0,-35.5,-71.5,-26.5,6.5,28.0,108.75,9
-49.5,58.0,-42.0,-64.25,-17.5,1.25,18.0,101.0,9
-112.5,45.5,-31.5,-64.75,-2.75,12.25,27.75,87.0,9
31.0,37.75,-14.5,-66.25,2.75,-18.75,14.0,77.0,9
191.25,40.25,-6.25,-59.5,27.25,-59.0,12.5,82.75,9
181.75,36.5,-14.25,-55.25,37.25,-63.0,14.0,67.0,9
172.0,22.25,-17.5,-51.5,36.25,-41.0,29.0,49.0,9
132.25,5.5,-10.75,-28.75,35.5,-28.25,31.0,22.0,9
87.25,12.25,-5.25,-32.0,52.5,-32.0,21.5,15.75,9
-9.5,15.75,1.25,-30.25,58.25,-19.5,29.25,-8.0,9
-102.75,-1.25,-16.25,-35.0,46.25,-5.75,16.25,-14.25,9
-147.5,-4.75,-15.0,-42.0,57.25,10.0,18.25,-17.75,9
-196.25,-5.75,-19.0,-38.75,57.5,19.0,17.0,-22.5,9
-197.0,12.5,-26.5,-50.75,52.25,21.5,7.25,-17.25,9
-127.75,30.25,-21.75,-39.5,45.75,22.5,14.5,-35.25,9
-40.5,47.5,-21.25,-38.0,48.25,6.75,22.0,3.75,9
10.0,27.25,-14.0,-30.75,59.0,14.5,10.5,0.75,9
63.0,4.5,-15.5,-23.25,63.25,2.75,-2.0,-6.25,9
86.75,25.75,-14.0,-36.0,50.5,-0.25,-3.75,14.25,9
74.0,20.25,-16.5,-39.75,39.0,0.0,21.75,9.0,9
41.75,17.0,-24.75,-31.0,43.0,2.75,26.25,6.25,9
-32.5,1.25,-24.75,-29.5,42.5,-7.5,17.5,-17.0,9
-66.5,6.5,-21.75,-26.5,45.25,-15.5,35.5,-37.25,9
-58.25,6.0,-15.25,-21.0,44.5,-5.75,29.25,-9.5,9
-63.5,-13.25,-14.5,-15.5,42.5,-24.25,42.0,62.0,9
-40.0,-12.0,-15.75,-17.75,32.5,-7.75,34.75,53.25,9
22.5,-26.0,-15.0,-25.75,39.0,-6.75,28.75,11.0,9
40.75,-10.25,-10.5,-21.5,51.75,5.25,54.0,9.0,9
71.75,3.25,-5.0,-14.75,40.0,10.75,48.5,-8.5,9
50.25,1.0,-5.75,-1.5,41.0,11.75,50.25,-59.25,9
-24.75,12.5,-6.5,-11.25,38.5,18.5,50.75,-30.75,9
18.75,-0.25,10.25,-17.75,33.0,14.75,43.0,59.75,9
54.75,-7.75,11.5,-20.5,34.25,15.25,24.75,51.25,9
24.5,-21.25,5.0,-22.25,41.5,-3.25,11.75,64.75,9
-11.0,-27.5,3.25,-24.0,36.25,3.75,14.5,63.75,9
-87.5,-7.75,-10.5,-34.0,25.25,5.25,27.25,66.75,9
-109.75,4.0,-3.75,-39.75,31.0,8.75,29.0,86.25,9
-81.75,31.5,-13.0,-35.25,35.25,19.25,22.75,62.25,9
-73.75,46.75,-9.25,-30.75,35.75,22.75,16.75,73.25,9
-5.25,61.5,-4.0,-35.25,44.25,37.0,13.5,59.75,9
18.5,67.25,-5.0,-26.25,37.25,23.25,19.0,60.75,9
-29.25,40.0,-1.25,-20.25,32.0,-4.5,13.5,54.5,9
-52.25,-13.0,1.5,-12.75,27.25,5.25,23.75,54.25,9
-51.75,-29.0,-1.25,-11.0,25.5,7.5,30.0,68.0,9
-44.5,-33.0,-0.75,-5.5,40.75,-5.25,17.5,97.5,9
-26.75,-30.5,-3.0,8.25,31.25,-1.25,17.0,55.25,9
-10.0,8.25,-8.0,5.5,29.0,-5.5,28.5,8.25,9
-38.0,18.25,2.25,8.0,22.0,3.75,32.75,55.25,9
-90.0,23.0,0.75,13.5,25.25,12.25,21.25,10.0,9
-67.25,16.25,0.75,13.5,25.5,13.75,8.0,-64.75,9
-63.75,17.5,-4.5,9.0,26.75,28.25,13.5,-199.0,9
-51.25,13.25,-6.75,-3.75,16.5,55.0,17.0,-266.75,9
64.25,-17.5,-3.75,-5.25,6.75,61.5,17.75,-106.0,9
100.75,-33.25,-0.75,1.5,31.75,35.25,22.75,-133.75,9
13.75,-32.75,0.5,-4.25,24.0,26.0,17.0,-241.25,9
-98.5,-43.25,5.25,-7.75,23.75,7.0,11.75,-64.25,9
-195.75,-47.25,17.75,2.5,23.25,-3.75,-5.0,21.25,9
-233.0,-24.0,-0.75,-4.5,24.75,4.0,-1.75,51.25,9
-158.75,-4.75,1.5,-11.0,26.0,-0.75,18.75,70.0,9
-76.0,-9.0,2.25,-1.5,25.25,9.5,15.0,47.25,9
-37.75,-29.5,-13.75,11.25,25.5,30.25,9.0,73.0,9
-6.0,-26.5,-5.25,14.0,28.75,32.0,20.75,46.25,9
10.5,-13.25,1.25,-6.5,34.5,36.5,34.0,53.25,9
4.0,-11.5,-6.5,-16.25,17.0,27.25,31.0,39.75,9
15.25,-5.0,-13.75,-5.0,27.75,17.25,25.25,31.0,9
79.75,-4.0,-7.25,-9.0,23.75,24.0,27.25,21.25,9
78.25,-19.25,-12.25,-18.75,24.0,21.25,28.75,24.0,9
4.0,-26.25,-8.5,-15.75,15.25,19.75,19.0,12.5,9
-67.75,-15.0,-13.5,-12.5,7.75,20.0,14.75,-12.0,9
-134.0,10.5,-21.0,-10.75,12.75,12.75,19.25,-9.0,9
-119.0,15.25,-13.75,-5.25,2.5,17.75,20.5,-14.5,9
-56.0,15.75,-17.5,-5.5,2.25,24.25,18.25,1.5,9
-37.0,19.5,-3.25,-6.75,3.25,28.75,27.75,-2.0,9
20.5,6.25,-0.5,-6.25,6.75,44.75,27.25,-9.25,9
82.25,7.0,-1.0,-4.25,-0.25,45.25,13.25,-10.75,9
153.75,22.0,2.0,0.5,-1.0,27.5,3.0,-5.25,9
125.75,7.0,8.0,-7.25,17.25,34.0,16.75,-7.5,9
31.75,-1.75,5.0,-21.25,17.75,33.0,23.75,-20.0,9
-34.25,6.0,-0.25,-35.5,4.0,19.75,19.5,17.0,9
-100.25,9.25,3.25,-27.75,13.75,7.75,16.75,46.0,9
-102.75,20.75,-3.75,-27.25,5.25,-18.5,7.5,42.5,9
-116.0,13.75,-3.75,-25.0,1.75,-15.0,2.5,34.0,9
-115.25,3.0,-16.0,-20.0,14.0,-66.75,-7.0,20.0,9
-72.0,-6.0,-14.0,-15.5,21.0,-51.5,8.0,30.25,9
-46.75,-18.5,-12.75,0.0,32.75,-3.0,9.25,-16.25,9
3.75,-1.5,-16.5,1.75,39.0,-32.0,0.25,-158.25,9
69.25,16.0,-8.5,3.0,36.0,-8.25,9.5,-217.5,9
97.75,8.75,-11.25,0.5,37.5,-24.75,8.0,-179.25,9
81.5,9.0,-6.25,-1.75,44.75,-11.5,10.25,-122.5,9
19.75,15.75,-6.0,-8.75,43.0,14.5,3.25,-52.25,9
-45.25,13.0,-0.75,-13.75,46.5,32.25,8.75,40.25,9
-95.0,18.75,3.25,-20.0,38.0,52.75,24.25,39.75,9
-137.75,29.75,-1.25,-29.0,28.5,25.75,21.75,28.25,9
-166.75,21.75,2.75,-17.5,29.5,32.25,23.5,29.75,9
-151.5,11.25,9.5,-13.75,22.25,29.75,13.25,-5.0,9
-99.25,3.75,-11.0,-19.0,11.0,36.0,15.25,-18.75,9
-36.5,5.25,-16.75,-22.5,3.25,48.5,10.75,-32.5,9
32.25,6.25,-0.75,-28.0,4.25,49.0,10.5,-53.25,9
101.75,-17.5,-15.25,-25.5,8.5,43.5,14.75,-60.25,9
148.0,-30.75,-10.0,-19.25,15.0,18.0,14.75,7.5,9
194.25,-11.5,-18.5,-19.75,32.25,27.25,20.75,-9.0,9
211.0,-10.75,-19.25,-18.25,34.75,30.0,23.75,3.25,9
227.75,-13.25,-9.5,-9.5,25.75,38.75,37.5,90.0,9
175.5,4.25,-22.75,-10.5,13.0,53.0,33.5,82.25,9
105.75,22.5,-8.25,-9.5,21.0,50.5,40.0,132.75,9
76.0,18.5,-17.75,-8.25,23.5,51.75,32.5,120.25,9
32.5,13.5,-21.0,-15.75,8.5,28.5,30.75,80.0,9
47.0,19.75,-27.25,-7.75,-2.25,26.75,27.75,28.75,9
6.5,7.0,-29.75,-14.75,11.75,28.75,13.75,-75.5,9
-37.0,6.25,-20.75,-18.0,32.25,38.75,6.25,-77.0,9
-93.5,9.75,-28.0,-10.0,18.75,65.25,13.5,-53.75,9
-135.75,7.5,-26.25,-17.75,5.5,61.75,26.0,-97.5,9
-123.5,15.0,-24.0,-17.75,-9.75,69.0,13.0,-58.5,9
-119.25,5.75,-20.75,-12.25,-19.25,67.5,23.0,18.25,9
-78.25,10.0,-33.75,-22.0,-9.5,71.25,22.25,7.25,9
-53.5,16.0,-27.0,-21.25,-3.75,75.0,27.75,72.75,9
-24.0,34.5,-22.0,-12.0,7.75,68.0,28.0,101.25,9
33.0,35.75,-16.75,-9.0,10.0,71.75,24.75,73.75,9
40.75,19.0,-10.5,-0.25,10.0,50.75,27.25,117.75,9
25.0,-1.75,-19.25,-12.25,7.75,20.75,19.25,124.0,9
19.0,-13.75,-20.5,-20.5,6.75,32.0,28.75,49.0,9
5.5,33.0,-38.5,-27.75,-1.5,38.25,5.25,-91.0,9
14.5,54.0,-34.5,-27.5,-11.5,37.75,-10.5,-180.75,9
-10.25,27.25,-32.5,-15.0,-18.25,39.5,-0.25,-127.25,9
-40.25,3.25,-31.75,-11.25,-29.75,21.75,11.25,-53.5,9
16.75,10.0,-19.5,12.5,-30.5,31.0,45.0,-101.75,9
96.75,15.0,-20.0,23.0,-38.5,26.5,42.0,-57.75,9
145.75,10.0,-16.0,18.5,-37.25,21.0,36.75,40.5,9
123.5,-7.25,-20.25,8.0,-25.5,21.5,46.25,31.5,9
57.75,-54.25,-12.75,6.75,-8.25,17.75,45.0,38.5,9
-20.5,-74.5,-5.75,10.0,-2.0,42.5,37.25,36.0,9
-62.5,-33.75,-15.0,1.75,-1.75,26.75,6.0,38.0,9
-26.75,6.5,-11.75,-9.5,0.75,2.5,1.75,23.5,9
-6.25,27.5,-9.0,-21.25,7.0,10.5,-5.75,16.0,9
-26.75,23.75,-12.75,-23.75,20.25,5.5,0.5,0.0,9
-102.75,-1.75,-13.25,-42.75,29.5,0.25,22.0,0.25,9
-140.75,-41.25,-8.75,-42.5,55.0,16.75,10.75,18.75,9
-86.0,-72.75,-8.5,-34.5,38.75,18.75,22.25,10.0,9
51.25,-18.0,-3.75,-27.5,19.75,27.0,28.25,20.75,9
151.75,36.75,-2.0,-19.5,23.25,30.0,19.0,14.5,9
167.5,40.25,-7.75,-13.25,3.25,0.0,25.25,18.25,9
145.25,34.0,-5.0,-1.75,11.5,-2.0,26.25,24.25,9
51.25,34.75,-8.5,-2.0,7.75,-18.25,23.0,25.25,9
-57.25,8.5,-9.75,-9.0,-13.75,-15.25,25.25,26.75,9
-215.0,-22.25,4.0,-4.5,2.75,6.25,28.25,18.5,9
-350.75,-32.0,-0.5,5.5,2.5,9.5,25.25,27.75,9
-330.0,-16.75,-3.25,-6.0,3.5,48.75,31.75,35.0,9
-228.75,1.0,0.5,2.0,17.25,87.25,31.25,27.75,9
-106.0,-11.0,-2.5,0.75,15.75,72.5,17.0,44.5,9
32.75,4.0,5.75,-1.5,33.75,58.0,9.75,54.75,9
76.75,-3.5,3.75,-4.75,30.75,78.25,16.0,58.25,9
89.25,-34.75,16.75,-17.25,32.25,71.25,20.0,93.5,9
121.75,-35.25,20.75,-19.75,41.25,55.25,17.0,112.0,9
128.5,-15.75,10.0,-24.0,57.25,65.5,19.0,170.5,9
139.5,13.5,11.75,-32.75,63.5,70.75,12.25,197.5,9
145.75,22.25,3.25,-33.75,53.25,66.75,15.0,191.0,9
63.25,-10.0,3.0,-36.25,67.75,76.0,22.25,208.25,9
-14.5,-12.25,22.5,-45.0,62.5,92.0,32.25,164.5,9
-57.75,10.75,23.0,-38.25,71.75,82.75,28.0,61.5,9
-87.0,11.25,14.75,-45.0,59.5,77.0,30.25,-45.25,9
-64.0,30.25,23.0,-43.5,55.75,86.25,37.75,-68.0,9
-109.25,27.25,18.25,-38.5,70.75,85.0,29.0,15.75,9
-125.5,13.25,16.5,-44.75,62.5,68.25,28.75,114.25,9
-63.75,18.75,12.25,-45.0,66.25,70.25,11.75,136.5,9
-70.75,-12.0,8.5,-49.5,51.5,78.0,8.25,95.0,9
-113.75,-68.75,11.25,-54.0,58.0,73.5,17.5,93.5,9
-173.0,-79.5,1.75,-58.5,67.5,73.25,8.25,62.5,9
-175.0,-45.0,3.5,-57.75,66.25,61.75,8.25,-16.5,9
-129.75,-36.0,-0.5,-53.0,60.5,48.0,8.75,-179.25,9
-35.25,-18.25,-13.5,-47.0,60.25,48.25,9.25,-249.75,9
113.75,25.5,-7.5,-37.25,60.25,48.0,11.25,-75.75,9
130.5,45.0,-19.75,-33.0,39.75,39.5,6.0,2.75,9
101.0,55.5,-17.0,-35.25,36.75,45.0,7.25,41.25,9
101.0,56.5,-11.5,-40.0,2.0,47.5,-3.75,56.25,9
91.25,35.25,-14.25,-40.0,-29.75,39.5,-7.75,79.5,9
30.75,9.0,-5.25,-34.0,-17.25,47.25,3.5,104.75,9
-32.5,18.0,-14.0,-28.0,-9.5,48.5,-1.5,84.5,9
-80.75,19.25,-17.75,-27.0,-13.5,53.25,-4.25,114.0,9
-128.25,-22.25,-29.5,-26.25,-23.75,61.75,-9.5,84.25,9
-97.75,-43.5,-33.75,-26.25,-26.25,48.25,-0.25,87.5,9
-39.5,-56.0,-25.25,-13.75,-32.0,32.5,-3.25,61.0,9
-15.75,-55.75,-22.0,-13.5,-28.75,32.5,-14.5,46.0,9
17.25,-8.5,-15.5,-18.0,-16.75,16.75,6.75,34.0,9
48.0,3.25,-16.75,4.75,-23.5,-6.75,17.25,26.5,9
9.25,-31.25,-7.5,-7.75,-25.0,-17.0,19.75,32.0,9
-38.75,-31.25,-10.75,-27.75,-20.75,-22.75,19.5,8.25,9
-36.5,-8.0,-13.0,-22.75,-21.0,-28.5,19.75,19.75,9
-36.0,-15.75,2.5,-6.25,-7.5,-24.0,15.75,1.75,9
-25.5,-24.75,4.75,-7.25,9.75,-18.5,29.25,-5.0,9
